# total [l(l+1)/2pi] C_l's (units: [microK]^2)
# for l=2 to 3000, i.e. number of multipoles equal to 2999
#
# -> if you don't want to see such a header, set 'headers' to 'no' in input file
# -> for CMB lensing (d), these are C_l^dd for the deflection field.
#    Remember the conversion factors:
#    C_l^dd (deflection) = l(l+1) C_l^phi-phi
#    C_l^gg (shear/convergence) = 1/4 (l(l+1))^2 C_l^phi-phi
#
# 1:l     2:TT                     3:EE                     4:BB                     5:TE                     6:dd                     7:dT                     8:dE                 
    2       1.124397984622e+03       3.561123826791e-02       0.000000000000e+00       2.822460038425e+00       4.985531952188e-08       3.377608910037e-03      -1.343682982732e-05 
    3       1.053055875124e+03       4.497281153875e-02       0.000000000000e+00       3.180321451940e+00       6.156004580419e-08       3.373587327504e-03      -1.427765966057e-05 
    4       9.887296286540e+02       3.824320016946e-02       0.000000000000e+00       2.969984739699e+00       7.147125405672e-08       3.285969270279e-03      -1.190610880402e-05 
    5       9.409125501389e+02       2.505026463530e-02       0.000000000000e+00       2.519540029516e+00       8.006587576067e-08       3.169563500573e-03      -7.927405089262e-06 
    6       9.078526195048e+02       1.377968518597e-02       0.000000000000e+00       2.017477537719e+00       8.756095255200e-08       3.044113149641e-03      -3.660903533904e-06 
    7       8.859312572114e+02       7.406925679443e-03       0.000000000000e+00       1.572780990477e+00       9.412031974816e-08       2.918589234192e-03      -1.037654958691e-07 
    8       8.724855369357e+02       4.816759096673e-03       0.000000000000e+00       1.232447455268e+00       9.988354654016e-08       2.797915453412e-03       2.171864426089e-06 
    9       8.652981927514e+02       3.869070447867e-03       0.000000000000e+00       1.005962775979e+00       1.050093808699e-07       2.685047404978e-03       3.027288094628e-06 
   10       8.625299188058e+02       3.260200337747e-03       0.000000000000e+00       8.814340078026e-01       1.096358805106e-07       2.580813561146e-03       2.685879549850e-06 
   11       8.634663240238e+02       2.710562517867e-03       0.000000000000e+00       8.363394038659e-01       1.113149518550e-07       2.495379497214e-03       1.611170036702e-06 
   12       8.670234632203e+02       2.356331935902e-03       0.000000000000e+00       8.452291475155e-01       1.149347666638e-07       2.397880645294e-03       2.895428076104e-07 
   13       8.726833984832e+02       2.261072691906e-03       0.000000000000e+00       8.860128792037e-01       1.181738320934e-07       2.312660801754e-03      -8.300303737673e-07 
   14       8.799050041128e+02       2.341394677161e-03       0.000000000000e+00       9.424701361073e-01       1.210742351286e-07       2.224052879369e-03      -1.504024554377e-06 
   15       8.886703411916e+02       2.508026181020e-03       0.000000000000e+00       1.004064618036e+00       1.236712686824e-07       2.143832908300e-03      -1.651694162147e-06 
   16       8.985357761656e+02       2.756542899546e-03       0.000000000000e+00       1.066308337761e+00       1.259967990179e-07       2.068771485987e-03      -1.375054024441e-06 
   17       9.094260360476e+02       3.136192622954e-03       0.000000000000e+00       1.128472187224e+00       1.280776056331e-07       1.997440514167e-03      -8.752311449615e-07 
   18       9.209835429826e+02       3.683642209647e-03       0.000000000000e+00       1.192342321405e+00       1.298867545623e-07       1.929084606597e-03      -3.843247214060e-07 
   19       9.332940286475e+02       4.397063548143e-03       0.000000000000e+00       1.259707550030e+00       1.315939362900e-07       1.865729808978e-03      -4.563205075175e-08 
   20       9.462005671172e+02       5.257546465193e-03       0.000000000000e+00       1.331906893349e+00       1.330596052587e-07       1.805940804337e-03       3.429955874529e-08 
   21       9.597492285307e+02       6.260601015755e-03       0.000000000000e+00       1.408594620631e+00       1.343721770541e-07       1.749754786761e-03      -1.293594761507e-07 
   22       9.738026208341e+02       7.403633791450e-03       0.000000000000e+00       1.488122085749e+00       1.355061863698e-07       1.695112724784e-03      -4.362791080773e-07 
   23       9.883461889541e+02       8.684915174789e-03       0.000000000000e+00       1.567225045333e+00       1.365324969341e-07       1.642558811105e-03      -7.838813361193e-07 
   24       1.003253513562e+03       1.010238849770e-02       0.000000000000e+00       1.641870032663e+00       1.374026476396e-07       1.592052226737e-03      -1.052161592412e-06 
   25       1.018605448141e+03       1.166010455381e-02       0.000000000000e+00       1.710045569790e+00       1.381717062771e-07       1.544659059310e-03      -1.184132500513e-06 
   26       1.034406406960e+03       1.336557076354e-02       0.000000000000e+00       1.770447881161e+00       1.388178642909e-07       1.500489273873e-03      -1.157728467325e-06 
   27       1.050550924740e+03       1.523406798525e-02       0.000000000000e+00       1.822574962811e+00       1.393683135207e-07       1.458782291549e-03      -1.015108306118e-06 
   28       1.066839588205e+03       1.728321486776e-02       0.000000000000e+00       1.866386369709e+00       1.397865622874e-07       1.417716766490e-03      -8.341424465851e-07 
   29       1.083347977889e+03       1.952375697443e-02       0.000000000000e+00       1.902368653158e+00       1.401464154518e-07       1.378021398716e-03      -6.633326959713e-07 
   30       1.100158004831e+03       2.196419069671e-02       0.000000000000e+00       1.931438178030e+00       1.404685619090e-07       1.340659666288e-03      -5.523667039370e-07 
   31       1.117269751681e+03       2.461249067012e-02       0.000000000000e+00       1.954524700819e+00       1.406724031356e-07       1.305792535057e-03      -5.505947305458e-07 
   32       1.134700971987e+03       2.747548360898e-02       0.000000000000e+00       1.971214787831e+00       1.408030781111e-07       1.273257805877e-03      -6.444000220122e-07 
   33       1.152403713642e+03       3.055913195898e-02       0.000000000000e+00       1.980591194292e+00       1.408891488243e-07       1.241960648509e-03      -7.848807180205e-07 
   34       1.170279319954e+03       3.386905151723e-02       0.000000000000e+00       1.981604466242e+00       1.408939719471e-07       1.210253772708e-03      -9.118954076207e-07 
   35       1.188360781465e+03       3.741198370075e-02       0.000000000000e+00       1.973197855754e+00       1.408496255087e-07       1.178654683966e-03      -1.001093856621e-06 
   36       1.206681067990e+03       4.119477781540e-02       0.000000000000e+00       1.954205971993e+00       1.407629789184e-07       1.148254386632e-03      -1.037486817319e-06 
   37       1.225236074825e+03       4.522387714633e-02       0.000000000000e+00       1.923562633960e+00       1.405947118600e-07       1.119903551415e-03      -1.009729697831e-06 
   38       1.244044119268e+03       4.950497124880e-02       0.000000000000e+00       1.881164576679e+00       1.403834450559e-07       1.093847738919e-03      -9.317302855950e-07 
   39       1.263096965431e+03       5.404317722991e-02       0.000000000000e+00       1.827298257888e+00       1.401651327256e-07       1.069803924370e-03      -8.321457494637e-07 
   40       1.282337672738e+03       5.884309021762e-02       0.000000000000e+00       1.762421991878e+00       1.399264306992e-07       1.046936912097e-03      -7.507413633644e-07 
   41       1.301692769634e+03       6.390910071090e-02       0.000000000000e+00       1.686995606419e+00       1.396200553567e-07       1.024173480119e-03      -7.277791841607e-07 
   42       1.321193060929e+03       6.924655084604e-02       0.000000000000e+00       1.600877700921e+00       1.392687049583e-07       1.001583391560e-03      -7.621141406822e-07 
   43       1.340883962576e+03       7.486089854279e-02       0.000000000000e+00       1.503749694068e+00       1.388979424319e-07       9.794956238978e-04      -8.354218297481e-07 
   44       1.360789585115e+03       8.075739038104e-02       0.000000000000e+00       1.395277658792e+00       1.385004397815e-07       9.581151305345e-04      -9.216945136729e-07 
   45       1.380917931774e+03       8.694078085029e-02       0.000000000000e+00       1.275116070810e+00       1.380482966945e-07       9.375418055942e-04      -9.935583642170e-07 
   46       1.401283814433e+03       9.341441186843e-02       0.000000000000e+00       1.142925211078e+00       1.375658329383e-07       9.179073390161e-04      -1.047082705201e-06 
   47       1.421888841196e+03       1.001808422960e-01       0.000000000000e+00       9.983554863396e-01       1.370814092750e-07       8.992507154966e-04      -1.086273909469e-06 
   48       1.442712653873e+03       1.072420712557e-01       0.000000000000e+00       8.410404191881e-01       1.366029920263e-07       8.814525101053e-04      -1.116898021290e-06 
   49       1.463711040385e+03       1.145995132214e-01       0.000000000000e+00       6.705949361539e-01       1.361119662509e-07       8.642090224018e-04      -1.146692380368e-06 
   50       1.484836426948e+03       1.222542051334e-01       0.000000000000e+00       4.866608648660e-01       1.355752307707e-07       8.471515261936e-04      -1.183658346407e-06 
   51       1.506110291326e+03       1.302075518122e-01       0.000000000000e+00       2.890619562505e-01       1.350068846823e-07       8.303280343776e-04      -1.229572230092e-06 
   52       1.527567142525e+03       1.384607398191e-01       0.000000000000e+00       7.768798221636e-02       1.344272037572e-07       8.138679624887e-04      -1.284248586230e-06 
   53       1.549233044320e+03       1.470145094548e-01       0.000000000000e+00      -1.475482980726e-01       1.338432249599e-07       7.978428354534e-04      -1.347213951502e-06 
   54       1.571124780829e+03       1.558691407670e-01       0.000000000000e+00      -3.867106285034e-01       1.332451141250e-07       7.822562105383e-04      -1.417671059715e-06 
   55       1.593252117229e+03       1.650245460034e-01       0.000000000000e+00      -6.398431711366e-01       1.326146101986e-07       7.670771304295e-04      -1.494408946849e-06 
   56       1.615627151148e+03       1.744806059175e-01       0.000000000000e+00      -9.069845581864e-01       1.319653378353e-07       7.523805023504e-04      -1.575583178554e-06 
   57       1.638255822804e+03       1.842368925005e-01       0.000000000000e+00      -1.188156438083e+00       1.313149884003e-07       7.382397905957e-04      -1.658790013754e-06 
   58       1.661134325098e+03       1.942925602262e-01       0.000000000000e+00      -1.483359026544e+00       1.306725435592e-07       7.246809018981e-04      -1.741065348541e-06 
   59       1.684248389786e+03       2.046463362058e-01       0.000000000000e+00      -1.792570769269e+00       1.300360412691e-07       7.116751969403e-04      -1.818834813252e-06 
   60       1.707572573643e+03       2.152965103440e-01       0.000000000000e+00      -2.115748004647e+00       1.293901378578e-07       6.991322018421e-04      -1.887862142748e-06 
   61       1.731081099045e+03       2.262405490926e-01       0.000000000000e+00      -2.452831016497e+00       1.287142667958e-07       6.869406733491e-04      -1.944148572864e-06 
   62       1.754784834051e+03       2.374738576748e-01       0.000000000000e+00      -2.803764542988e+00       1.280179573235e-07       6.751259699535e-04      -1.987113925658e-06 
   63       1.778701383958e+03       2.489907212949e-01       0.000000000000e+00      -3.168481293569e+00       1.273163598749e-07       6.637317925401e-04      -2.017384357763e-06 
   64       1.802843929007e+03       2.607846356668e-01       0.000000000000e+00      -3.546895833266e+00       1.266196464524e-07       6.527724183734e-04      -2.035964680536e-06 
   65       1.827220877160e+03       2.728482852267e-01       0.000000000000e+00      -3.938904448131e+00       1.259317796977e-07       6.422288450877e-04      -2.044274688443e-06 
   66       1.851835516877e+03       2.851735213447e-01       0.000000000000e+00      -4.344385010692e+00       1.252491785223e-07       6.320447852675e-04      -2.044186710021e-06 
   67       1.876685669895e+03       2.977513405377e-01       0.000000000000e+00      -4.763196845408e+00       1.245592770034e-07       6.221225116192e-04      -2.038064381414e-06 
   68       1.901767707242e+03       3.105726905820e-01       0.000000000000e+00      -5.195180518869e+00       1.238467557926e-07       6.123581967821e-04      -2.028313627477e-06 
   69       1.927090318355e+03       3.236311272259e-01       0.000000000000e+00      -5.640157461782e+00       1.231189415136e-07       6.027704862291e-04      -2.015782979043e-06 
   70       1.952662920999e+03       3.369206591300e-01       0.000000000000e+00      -6.097930028329e+00       1.223877347362e-07       5.934030170698e-04      -2.000951679270e-06 
   71       1.978491313494e+03       3.504349669947e-01       0.000000000000e+00      -6.568281430618e+00       1.216620615178e-07       5.842865244213e-04      -1.984382148441e-06 
   72       2.004577439080e+03       3.641674029463e-01       0.000000000000e+00      -7.050975602210e+00       1.209471866528e-07       5.754371589831e-04      -1.966725157994e-06 
   73       2.030919150289e+03       3.781109899233e-01       0.000000000000e+00      -7.545757061643e+00       1.202439744960e-07       5.668547440149e-04      -1.948725131610e-06 
   74       2.057509973318e+03       3.922584210626e-01       0.000000000000e+00      -8.052350775965e+00       1.195480958482e-07       5.585209717175e-04      -1.931225573367e-06 
   75       2.084338872397e+03       4.066020590859e-01       0.000000000000e+00      -8.570462024256e+00       1.188491793926e-07       5.503975390166e-04      -1.915174622940e-06 
   76       2.111395126566e+03       4.211335986564e-01       0.000000000000e+00      -9.099787786668e+00       1.181354019918e-07       5.424425100752e-04      -1.901469880984e-06 
   77       2.138684507564e+03       4.358429837223e-01       0.000000000000e+00      -9.640053610893e+00       1.174113566354e-07       5.346690056283e-04      -1.890430518129e-06 
   78       2.166215637673e+03       4.507192907134e-01       0.000000000000e+00      -1.019098325176e+01       1.166849561332e-07       5.270989802305e-04      -1.882191793868e-06 
   79       2.193995010347e+03       4.657510406532e-01       0.000000000000e+00      -1.075228784039e+01       1.159621164726e-07       5.197453799418e-04      -1.876849532672e-06 
   80       2.222026859417e+03       4.809261916335e-01       0.000000000000e+00      -1.132366598406e+01       1.152463569016e-07       5.126111589655e-04      -1.874455901355e-06 
   81       2.250313028295e+03       4.962321312904e-01       0.000000000000e+00      -1.190480386607e+01       1.145383728138e-07       5.056882651012e-04      -1.875015054779e-06 
   82       2.278852839181e+03       5.116556692788e-01       0.000000000000e+00      -1.249537534560e+01       1.138355807337e-07       4.989565940138e-04      -1.878478649915e-06 
   83       2.307642962266e+03       5.271830297481e-01       0.000000000000e+00      -1.309504205760e+01       1.131316346990e-07       4.923829123168e-04      -1.884741228238e-06 
   84       2.336679610662e+03       5.428002971247e-01       0.000000000000e+00      -1.370344889490e+01       1.124194730003e-07       4.859329133788e-04      -1.893628432806e-06 
   85       2.365965829779e+03       5.584948548552e-01       0.000000000000e+00      -1.432020937533e+01       1.117028264465e-07       4.796133531737e-04      -1.904869004804e-06 
   86       2.395505182188e+03       5.742541724890e-01       0.000000000000e+00      -1.494491802060e+01       1.109875324739e-07       4.734383112851e-04      -1.918107172833e-06 
   87       2.425299438975e+03       5.900653736698e-01       0.000000000000e+00      -1.557715478027e+01       1.102780718446e-07       4.674164175905e-04      -1.932903691615e-06 
   88       2.455348488040e+03       6.059152362291e-01       0.000000000000e+00      -1.621648505405e+01       1.095773251434e-07       4.615503145793e-04      -1.948730194691e-06 
   89       2.485650242386e+03       6.217901922803e-01       0.000000000000e+00      -1.686245971404e+01       1.088863143016e-07       4.558361041961e-04      -1.964963407082e-06 
   90       2.516200548414e+03       6.376763283122e-01       0.000000000000e+00      -1.751461512696e+01       1.082039287983e-07       4.502627792097e-04      -1.980879217893e-06 
   91       2.546993094212e+03       6.535593852833e-01       0.000000000000e+00      -1.817247317644e+01       1.075266361873e-07       4.448116391057e-04      -1.995646612874e-06 
   92       2.578019317851e+03       6.694247587152e-01       0.000000000000e+00      -1.883554128529e+01       1.068481765986e-07       4.394556905063e-04      -2.008321466937e-06 
   93       2.609270981636e+03       6.852577435118e-01       0.000000000000e+00      -1.950332142295e+01       1.061621399993e-07       4.341690190081e-04      -2.018060036723e-06 
   94       2.640748536935e+03       7.010443103329e-01       0.000000000000e+00      -2.017533862925e+01       1.054713332766e-07       4.289587104063e-04      -2.024829030192e-06 
   95       2.672453853719e+03       7.167704467041e-01       0.000000000000e+00      -2.085111684180e+01       1.047806014043e-07       4.238389654284e-04      -2.028843390732e-06 
   96       2.704387612321e+03       7.324219261023e-01       0.000000000000e+00      -2.153017043658e+01       1.040940445288e-07       4.188214987044e-04      -2.030362744454e-06 
   97       2.736549248327e+03       7.479843114089e-01       0.000000000000e+00      -2.221200437358e+01       1.034148866856e-07       4.139152906765e-04      -2.029693933032e-06 
   98       2.768936897461e+03       7.634429583632e-01       0.000000000000e+00      -2.289611434239e+01       1.027453370633e-07       4.091263328319e-04      -2.027193600151e-06 
   99       2.801547340477e+03       7.787830190149e-01       0.000000000000e+00      -2.358198690779e+01       1.020864436590e-07       4.044573662578e-04      -2.023270831551e-06 
  100       2.834375948040e+03       7.939894451779e-01       0.000000000000e+00      -2.426909965534e+01       1.014379391626e-07       3.999076135183e-04      -2.018389848688e-06 
  101       2.867416625622e+03       8.090469918829e-01       0.000000000000e+00      -2.495692133702e+01       1.007980789121e-07       3.954725038538e-04      -2.013072755995e-06 
  102       2.900661758381e+03       8.239402208309e-01       0.000000000000e+00      -2.564491201676e+01       1.001634707587e-07       3.911433917038e-04      -2.007902341742e-06 
  103       2.934102156055e+03       8.386535038460e-01       0.000000000000e+00      -2.633252321609e+01       9.952889668401e-08       3.869072685501e-04      -2.003524932517e-06 
  104       2.967728955793e+03       8.531714058472e-01       0.000000000000e+00      -2.701920224637e+01       9.888924516094e-08       3.827514101997e-04      -2.000514573812e-06 
  105       3.001539742093e+03       8.674798852436e-01       0.000000000000e+00      -2.770440555840e+01       9.824633156964e-08       3.786790475734e-04      -1.998927641804e-06 
  106       3.035533154682e+03       8.815652628874e-01       0.000000000000e+00      -2.838758747600e+01       9.760355279098e-08       3.746963116096e-04      -1.998663670274e-06 
  107       3.069706971205e+03       8.954138645678e-01       0.000000000000e+00      -2.906819635966e+01       9.696385784476e-08       3.708074206985e-04      -1.999594672044e-06 
