# Transfer functions T_i(k) for adiabatic (AD) mode (normalized to initial curvature=1) at redshift z=99
# for k=1.01052e-05 to 286.712 h/Mpc,
# number of wavenumbers equal to 394
# t_i   stands for theta_i(k,z) with above normalization 
# t_tot stands for (sum_i [rho_i+p_i] theta_i)/(sum_i [rho_i+p_i]))(k,z)
#
#    1:k (h/Mpc)              2:t_g                    3:t_b                    4:t_cdm                  5:t_dmeff                6:t_ur                   7:t_ncdm[0]              8:t_tot              
       1.010518788683e-05       1.529854984913e-08       1.529870810606e-08       1.529870825945e-08       1.529870825846e-08       1.529853925824e-08       1.529859856301e-08       1.529870212597e-08 
       1.058143071972e-05       1.677450927277e-08       1.677469936899e-08       1.677469955180e-08       1.677469955060e-08       1.677449654959e-08       1.677456773613e-08       1.677469218426e-08 
       1.108011818584e-05       1.839286547744e-08       1.839309203620e-08       1.839309224300e-08       1.839309224157e-08       1.839285027280e-08       1.839293513119e-08       1.839308346394e-08 
       1.160230806817e-05       2.016734966486e-08       2.016762328824e-08       2.016762354586e-08       2.016762354413e-08       2.016733131796e-08       2.016743369179e-08       2.016761294097e-08 
       1.214910800146e-05       2.211302939837e-08       2.211335831047e-08       2.211335861945e-08       2.211335861737e-08       2.211300734377e-08       2.211313033231e-08       2.211334587135e-08 
       1.272167782168e-05       2.424642137950e-08       2.424681474819e-08       2.424681510493e-08       2.424681510244e-08       2.424639496910e-08       2.424654205763e-08       2.424679986060e-08 
       1.332123202619e-05       2.658562724015e-08       2.658610193210e-08       2.658610237341e-08       2.658610237041e-08       2.658559539471e-08       2.658577273887e-08       2.658608397470e-08 
       1.394904234983e-05       2.915050936135e-08       2.915107965440e-08       2.915108018222e-08       2.915108017862e-08       2.915047109286e-08       2.915068407441e-08       2.915105807785e-08 
       1.460644046248e-05       3.196283793136e-08       3.196352187669e-08       3.196352249979e-08       3.196352249545e-08       3.196279200227e-08       3.196304738852e-08       3.196349599143e-08 
       1.529482079367e-05       3.504648161278e-08       3.504730291817e-08       3.504730366110e-08       3.504730365589e-08       3.504642643478e-08       3.504673303435e-08       3.504727182904e-08 
       1.601564349038e-05       3.842761431479e-08       3.842860108442e-08       3.842860197274e-08       3.842860196648e-08       3.842754800946e-08       3.842791627661e-08       3.842856372762e-08 
       1.677043751418e-05       4.213493484210e-08       4.213612035234e-08       4.213612141548e-08       4.213612140795e-08       4.213485515582e-08       4.213529749136e-08       4.213607546723e-08 
       1.756080388440e-05       4.619990928319e-08       4.620133377674e-08       4.620133504906e-08       4.620133504001e-08       4.619981351780e-08       4.620034490125e-08       4.620127983818e-08 
       1.838841907408e-05       5.065703857283e-08       5.065875080987e-08       5.065875233819e-08       5.065875232730e-08       5.065692344810e-08       5.065756202088e-08       5.065868597377e-08 
       1.925503856599e-05       5.554415277016e-08       5.554621062230e-08       5.554621245312e-08       5.554621244003e-08       5.554401439535e-08       5.554478170460e-08       5.554613269294e-08 
       2.016250057627e-05       6.090272912060e-08       6.090520264091e-08       6.090520483820e-08       6.090520482246e-08       6.090256278076e-08       6.090348490220e-08       6.090510896633e-08 
       2.111272995350e-05       6.677824049734e-08       6.678121802433e-08       6.678122069379e-08       6.678122067487e-08       6.677804030596e-08       6.677914996942e-08       6.678110528031e-08 
       2.210774226160e-05       7.322056231691e-08       7.322414063128e-08       7.322414383084e-08       7.322414380810e-08       7.322032169776e-08       7.322165507511e-08       7.322400512975e-08 
       2.314964805508e-05       8.028436192553e-08       8.028866286722e-08       8.028866670575e-08       8.028866667840e-08       8.028407268852e-08       8.028567511411e-08       8.028849999394e-08 
       2.424065735580e-05       8.802958552349e-08       8.803475524928e-08       8.803475985814e-08       8.803475982526e-08       8.802923782869e-08       8.803116369525e-08       8.803455946952e-08 
       2.538308434078e-05       9.652195903747e-08       9.652817383038e-08       9.652817936726e-08       9.652817932773e-08       9.652154104270e-08       9.652385593150e-08       9.652793846827e-08 
       2.657935225081e-05       1.058335586598e-07       1.058410214109e-07       1.058410279966e-07       1.058410279491e-07       1.058330566006e-07       1.058358363004e-07       1.058407387344e-07 
       2.783199853053e-05       1.160433788452e-07       1.160523498091e-07       1.160523577248e-07       1.160523576676e-07       1.160427752619e-07       1.160461164093e-07       1.160520099999e-07 
       2.914368021063e-05       1.272380601427e-07       1.272488442286e-07       1.272488537377e-07       1.272488536691e-07       1.272373345249e-07       1.272413505851e-07       1.272484357321e-07 
       3.051717954381e-05       1.395125737920e-07       1.395255477816e-07       1.395255592831e-07       1.395255592005e-07       1.395117009215e-07       1.395165317549e-07       1.395250563778e-07 
       3.195540990632e-05       1.529710861005e-07       1.529866818867e-07       1.529866956982e-07       1.529866955989e-07       1.529700367895e-07       1.529758434218e-07       1.529860911644e-07 
       3.346142197758e-05       1.677277659524e-07       1.677465139265e-07       1.677465305152e-07       1.677465303958e-07       1.677265045127e-07       1.677334842985e-07       1.677458037931e-07 
       3.503841021110e-05       1.839078010683e-07       1.839303384534e-07       1.839303583788e-07       1.839303582353e-07       1.839062846167e-07       1.839146746672e-07       1.839294847678e-07 
       3.668971961036e-05       2.016484452182e-07       2.016755378487e-07       2.016755617821e-07       2.016755616095e-07       2.016466222028e-07       2.016567074930e-07       2.016745115963e-07 
       3.841885282399e-05       2.211001821014e-07       2.211327489505e-07       2.211327776915e-07       2.211327774840e-07       2.210979905995e-07       2.211101131462e-07       2.211315153094e-07 
       4.022947757537e-05       2.424279863815e-07       2.424671388878e-07       2.424671734275e-07       2.424671731781e-07       2.424253517340e-07       2.424399249180e-07       2.424656557645e-07 
       4.212543444234e-05       2.658127463197e-07       2.658598132305e-07       2.658598547262e-07       2.658598544263e-07       2.658095790152e-07       2.658270973310e-07       2.658580302770e-07 
       4.411074500362e-05       2.914527642877e-07       2.915093465618e-07       2.915093964092e-07       2.915093960487e-07       2.914489566423e-07       2.914700157265e-07       2.915072031184e-07 
       4.618962036909e-05       3.195654505369e-07       3.196334719909e-07       3.196335318876e-07       3.196335314542e-07       3.195608730343e-07       3.195861886892e-07       3.196308951795e-07 
       4.836647011210e-05       3.503891543650e-07       3.504709278745e-07       3.504709998523e-07       3.504709993312e-07       3.503836513279e-07       3.504140841038e-07       3.504678300720e-07 
       5.064591162283e-05       3.841851775943e-07       3.842834843614e-07       3.842835708583e-07       3.842835702318e-07       3.841785618659e-07       3.842151465194e-07       3.842797601984e-07 
       5.303277990233e-05       4.212399811534e-07       4.213581651979e-07       4.213582691535e-07       4.213582684003e-07       4.212320277289e-07       4.212760083835e-07       4.213536879886e-07 
       5.553213781823e-05       4.618676040830e-07       4.620096845295e-07       4.620098094675e-07       4.620098085619e-07       4.618580425032e-07       4.619109144535e-07       4.620043020045e-07 
       5.814928684377e-05       5.064123545679e-07       5.065831276513e-07       5.065832775895e-07       5.065832765008e-07       5.064008614034e-07       5.064644103932e-07       5.065766579476e-07 
       6.088977830291e-05       5.552515270170e-07       5.554568380315e-07       5.554570182374e-07       5.554570169285e-07       5.552377098602e-07       5.553141091469e-07       5.554490598130e-07 
       6.375942514547e-05       6.087988600134e-07       6.090456920010e-07       6.090459086369e-07       6.090459070632e-07       6.087822488137e-07       6.088740963975e-07       6.090363407359e-07 
       6.676431427713e-05       6.675078357119e-07       6.678045783769e-07       6.678048389405e-07       6.678048370485e-07       6.674878652669e-07       6.675982828074e-07       6.677933363152e-07 
       6.991081947063e-05       7.318755112334e-07       7.322322650325e-07       7.322325778090e-07       7.322325755344e-07       7.318515040832e-07       7.319842480968e-07       7.322187490821e-07 
       7.320561488533e-05       8.024467178740e-07       8.028756317140e-07       8.028760082642e-07       8.028760055295e-07       8.024178544190e-07       8.025774450726e-07       8.028593822879e-07 
       7.665568922405e-05       8.798186814316e-07       8.803343312724e-07       8.803347837547e-07       8.803347804669e-07       8.797839825021e-07       8.799758419210e-07       8.803147956725e-07 
       8.026836055702e-05       9.646459469518e-07       9.652658508411e-07       9.652663946155e-07       9.652663906627e-07       9.646042336044e-07       9.648348794143e-07       9.652423653745e-07 
       8.405129184450e-05       1.057645774604e-06       1.058391077744e-06       1.058391731775e-06       1.058391727023e-06       1.057595625374e-06       1.057872921401e-06       1.058362841642e-06 
       8.801250719093e-05       1.159604446491e-06       1.160500485587e-06       1.160501271956e-06       1.160501266243e-06       1.159544157611e-06       1.159877529055e-06       1.160466538844e-06 
       9.216040886516e-05       1.271383549130e-06       1.272460777929e-06       1.272461723119e-06       1.272461716250e-06       1.271311072509e-06       1.271711848106e-06       1.272419966607e-06 
       9.650379512275e-05       1.393927157463e-06       1.395222242346e-06       1.395223378711e-06       1.395223370452e-06       1.393840028392e-06       1.394321845763e-06       1.395173177479e-06 
       1.010518788683e-04       1.528269894484e-06       1.529826861321e-06       1.529828227384e-06       1.529828217455e-06       1.528165152666e-06       1.528744388226e-06       1.529767874892e-06 
       1.058143071972e-04       1.675545285894e-06       1.677417097928e-06       1.677418740276e-06       1.677418728338e-06       1.675419371299e-06       1.676115724052e-06       1.677346183512e-06 
       1.108011818584e-04       1.836995344185e-06       1.839245633129e-06       1.839247607259e-06       1.839247592907e-06       1.836843980235e-06       1.837681117582e-06       1.839160379777e-06 
       1.160230806817e-04       2.013980612666e-06       2.016685941031e-06       2.016688314349e-06       2.016688297094e-06       2.013798655230e-06       2.014805050937e-06       2.016583448366e-06 
       1.214910800146e-04       2.207991623328e-06       2.211243995850e-06       2.211246849055e-06       2.211246828311e-06       2.207772891682e-06       2.208982762363e-06       2.211120778280e-06 
       1.272167782168e-04       2.420661018288e-06       2.424571015928e-06       2.424574445966e-06       2.424574421025e-06       2.420398084060e-06       2.421852554130e-06       2.424422884062e-06 
       1.332123202619e-04       2.653776856820e-06       2.658477452288e-06       2.658481575943e-06       2.658481545958e-06       2.653460790720e-06       2.655209308181e-06       2.658299368618e-06 
       1.394904234983e-04       2.909297398538e-06       2.914948385082e-06       2.914953342294e-06       2.914953306244e-06       2.908917471721e-06       2.911019457272e-06       2.914734295733e-06 
       1.460644046248e-04       3.189366740155e-06       3.196160296319e-06       3.196166252517e-06       3.196166209176e-06       3.188910064976e-06       3.191436970591e-06       3.195902918388e-06 
       1.529482079367e-04       3.496332508616e-06       3.504499570430e-06       3.504506734628e-06       3.504506682520e-06       3.495783569132e-06       3.498821268550e-06       3.504190159944e-06 
       1.601564349038e-04       3.832764510936e-06       3.842582719423e-06       3.842591333659e-06       3.842591271012e-06       3.832104688315e-06       3.835756402263e-06       3.842210757120e-06 
       1.677043751418e-04       4.201475463985e-06       4.213278540307e-06       4.213288898384e-06       4.213288823065e-06       4.200682377010e-06       4.205072171545e-06       4.212831384397e-06 
       1.756080388440e-04       4.605543265750e-06       4.619732436013e-06       4.619744882503e-06       4.619744791950e-06       4.604590045070e-06       4.609867056012e-06       4.619194881138e-06 
       1.838841907408e-04       5.048335663038e-06       5.065393056848e-06       5.065408031185e-06       5.065407922316e-06       5.047189954475e-06       5.053533413572e-06       5.064746850827e-06 
       1.925503856599e-04       5.533536195866e-06       5.554041546094e-06       5.554059546921e-06       5.554059416032e-06       5.532159209788e-06       5.539784565492e-06       5.553264719598e-06 
       2.016250057627e-04       6.065173550639e-06       6.089823571106e-06       6.089845201464e-06       6.089845044101e-06       6.063518677783e-06       6.072684835819e-06       6.088889724760e-06 
       2.111272995350e-04       6.647652302788e-06       6.677284353667e-06       6.677310360647e-06       6.677310171454e-06       6.645663488930e-06       6.656681616964e-06       6.676161775930e-06 
       2.210774226160e-04       7.285786591859e-06       7.321407229143e-06       7.321438499787e-06       7.321438272328e-06       7.283396534964e-06       7.296640609807e-06       7.320057793045e-06 
       2.314964805508e-04       7.984836893831e-06       8.027655851682e-06       8.027693439490e-06       8.027693166024e-06       7.981964798154e-06       7.997884210316e-06       8.026033725192e-06 
       2.424065735580e-04       8.750549087717e-06       8.802020322252e-06       8.802065501036e-06       8.802065172257e-06       8.747097895990e-06       8.766232688465e-06       8.800070427181e-06 
       2.538308434078e-04       9.589196989075e-06       9.651067859807e-06       9.651122200964e-06       9.651121805685e-06       9.585050035781e-06       9.608049177540e-06       9.648724034870e-06 
       2.657935225081e-04       1.050762814825e-05       1.058199863937e-05       1.058206394646e-05       1.058206347123e-05       1.050264560070e-05       1.053028877662e-05       1.057918130889e-05 
       2.783199853053e-04       1.151331249967e-05       1.160270612896e-05       1.160278464279e-05       1.160278407144e-05       1.150732627050e-05       1.154055033087e-05       1.159931972508e-05 
       2.914368021063e-04       1.261439483134e-05       1.272184420270e-05       1.272193859189e-05       1.272193790497e-05       1.260720322100e-05       1.264713373419e-05       1.271777386198e-05 
       3.051717954381e-04       1.381975100876e-05       1.394890011606e-05       1.394901358136e-05       1.394901275550e-05       1.381111195560e-05       1.385910108941e-05       1.394400781630e-05 
       3.195540990632e-04       1.513904713525e-05       1.529427451111e-05       1.529441091468e-05       1.529440992179e-05       1.512867012406e-05       1.518634220819e-05       1.528839442430e-05 
       3.346142197758e-04       1.658280285685e-05       1.676936923727e-05       1.676953324485e-05       1.676953205113e-05       1.657033925868e-05       1.663964538361e-05       1.676230214771e-05 
       3.503841021110e-04       1.816245757154e-05       1.838668356701e-05       1.838688073903e-05       1.838687930385e-05       1.814748932845e-05       1.823077287199e-05       1.837819009577e-05 
       3.668971961036e-04       1.989044108888e-05       2.015991949500e-05       2.016015653557e-05       2.016015481011e-05       1.987246678060e-05       1.997254187739e-05       2.014971210883e-05 
       3.841885282399e-04       2.178024464075e-05       2.210409686173e-05       2.210438183329e-05       2.210437975884e-05       2.175866304688e-05       2.187890910736e-05       2.209183015819e-05 
       4.022947757537e-04       2.384649846487e-05       2.423568020793e-05       2.423602281308e-05       2.423602031903e-05       2.382058889728e-05       2.396506331111e-05       2.422093935338e-05 
       4.212543444234e-04       2.610504668484e-05       2.657271681505e-05       2.657312865922e-05       2.657312566073e-05       2.607394568571e-05       2.624751949569e-05       2.655500353751e-05 
       4.411074500362e-04       2.857302750018e-05       2.913498832429e-05       2.913548348241e-05       2.913547987742e-05       2.853570035647e-05       2.874422044527e-05       2.911370438515e-05 
       4.618962036909e-04       3.126894935317e-05       3.194417700643e-05       3.194477226038e-05       3.194476792623e-05       3.122415737396e-05       3.147464096320e-05       3.191860395722e-05 
       4.836647011210e-04       3.421276917340e-05       3.502404719527e-05       3.502476276069e-05       3.502475754990e-05       3.415902947684e-05       3.445989682940e-05       3.499332253140e-05 
       5.064591162283e-04       3.742596415429e-05       3.840064417920e-05       3.840150443134e-05       3.840149816659e-05       3.736150223742e-05       3.772285541676e-05       3.836373260321e-05 
       5.303277990233e-04       4.093159837826e-05       4.210251232518e-05       4.210354637656e-05       4.210353884468e-05       4.085429250849e-05       4.128824877657e-05       4.205817106981e-05 
       5.553213781823e-04       4.475438241176e-05       4.616093246131e-05       4.616217564087e-05       4.616216658555e-05       4.466169556840e-05       4.518278614222e-05       4.610767045614e-05 
       5.814928684377e-04       4.892071698625e-05       5.061018395478e-05       5.061167848052e-05       5.061166759364e-05       4.880961900974e-05       4.943526540474e-05       5.054621198476e-05 
       6.088977830291e-04       5.345872020287e-05       5.548782854150e-05       5.548962511310e-05       5.548961202419e-05       5.332559359066e-05       5.407667721587e-05       5.541100023626e-05 
       6.375942514547e-04       5.839823490179e-05       6.083502276019e-05       6.083718250001e-05       6.083716676368e-05       5.823876344693e-05       5.914030483679e-05       6.074276412209e-05 
       6.676431427713e-04       6.377079810963e-05       6.669685860953e-05       6.669945485753e-05       6.669943593829e-05       6.357983679340e-05       6.466180686128e-05       6.658608316914e-05 
       6.991081947063e-04       6.960958218791e-05       7.312273681004e-05       7.312585771633e-05       7.312583497041e-05       6.938100298443e-05       7.067928878492e-05       7.298974478729e-05 
       7.320561488533e-04       7.594927778913e-05       8.016677330938e-05       8.017052484812e-05       8.017049750152e-05       7.567578880609e-05       7.723334471324e-05       8.000713099371e-05 
       7.665568922405e-04       8.282591958919e-05       8.788824417137e-05       8.789275372162e-05       8.789272084376e-05       8.249885326141e-05       8.436707054359e-05       8.769663996742e-05 
       8.026836055702e-04       9.027663819589e-05       9.635207170575e-05       9.635749240158e-05       9.635745287371e-05       8.988570386047e-05       9.212603792374e-05       9.612214459487e-05 
