# Matter power spectrum P(k) at redshift z=99
# for k=1.00899e-05 to 1430.41 h/Mpc,
# number of wavenumbers equal to 1499
#    1:k (h/Mpc)              2:P (Mpc/h)^3        
       1.008985870272e-05       8.603965711805e-03 
       1.020669376006e-05       8.699587622714e-03 
       1.032488170360e-05       8.796272214251e-03 
       1.044443819903e-05       8.894031415401e-03 
       1.056537909342e-05       8.992877019918e-03 
       1.068772041737e-05       9.092821149145e-03 
       1.081147838709e-05       9.193876718119e-03 
       1.093666940655e-05       9.296054754710e-03 
       1.106331006970e-05       9.399366922627e-03 
       1.119141716262e-05       9.503828659741e-03 
       1.132100766576e-05       9.609451341401e-03 
       1.145209875620e-05       9.716247925755e-03 
       1.158470780992e-05       9.824231400394e-03 
       1.171885240412e-05       9.933414975128e-03 
       1.185455031952e-05       1.004381192677e-02 
       1.199181954271e-05       1.015543580648e-02 
       1.213067826860e-05       1.026830021605e-02 
       1.227114490275e-05       1.038241866338e-02 
       1.241323806387e-05       1.049780566830e-02 
       1.255697658625e-05       1.061447497779e-02 
       1.270237952227e-05       1.073244096321e-02 
       1.284946614494e-05       1.085171800281e-02 
       1.299825595043e-05       1.097232066902e-02 
       1.314876866067e-05       1.109426364816e-02 
       1.330102422595e-05       1.121756189435e-02 
       1.345504282758e-05       1.134223082864e-02 
       1.361084488057e-05       1.146828488795e-02 
       1.376845103630e-05       1.159573953260e-02 
       1.392788218531e-05       1.172461138403e-02 
       1.408915946001e-05       1.185491511659e-02 
       1.425230423754e-05       1.198666667275e-02 
       1.441733814255e-05       1.211988278363e-02 
       1.458428305012e-05       1.225457940713e-02 
       1.475316108862e-05       1.239077299228e-02 
       1.492399464263e-05       1.252848016785e-02 
       1.509680635597e-05       1.266771776833e-02 
       1.527161913464e-05       1.280850281015e-02 
       1.544845614988e-05       1.295085246930e-02 
       1.562734084126e-05       1.309478654275e-02 
       1.580829691973e-05       1.324031781979e-02 
       1.599134837084e-05       1.338746648626e-02 
       1.617651945786e-05       1.353625050785e-02 
       1.636383472500e-05       1.368668567762e-02 
       1.655331900072e-05       1.383879751344e-02 
       1.674499740094e-05       1.399259742256e-02 
       1.693889533242e-05       1.414810628485e-02 
       1.713503849614e-05       1.430534376623e-02 
       1.733345289065e-05       1.446432902141e-02 
       1.753416481556e-05       1.462508087224e-02 
       1.773720087503e-05       1.478761924514e-02 
       1.794258798126e-05       1.495196399870e-02 
       1.815035335809e-05       1.511813521364e-02 
       1.836052454460e-05       1.528615319645e-02 
       1.857312939875e-05       1.545603845906e-02 
       1.878819610109e-05       1.562781146604e-02 
       1.900575315847e-05       1.580149426268e-02 
       1.922582940784e-05       1.597710677018e-02 
       1.944845402008e-05       1.615467099027e-02 
       1.967365650383e-05       1.633420851509e-02 
       1.990146670944e-05       1.651574137280e-02 
       2.013191483291e-05       1.669929174252e-02 
       2.036503141988e-05       1.688488203822e-02 
       2.060084736971e-05       1.707253488155e-02 
       2.083939393954e-05       1.726227324169e-02 
       2.108070274847e-05       1.745412026192e-02 
       2.132480578171e-05       1.764809933906e-02 
       2.157173539486e-05       1.784423426624e-02 
       2.182152431817e-05       1.804254869097e-02 
       2.207420566089e-05       1.824306731730e-02 
       2.232981291567e-05       1.844581439840e-02 
       2.258837996296e-05       1.865081476445e-02 
       2.284994107554e-05       1.885809336475e-02 
       2.311453092307e-05       1.906767556820e-02 
       2.338218457663e-05       1.927958751338e-02 
       2.365293751343e-05       1.949385410018e-02 
       2.392682562148e-05       1.971050184205e-02 
       2.420388520435e-05       1.992955728905e-02 
       2.448415298599e-05       2.015104721078e-02 
       2.476766611558e-05       2.037499866402e-02 
       2.505446217249e-05       2.060143901515e-02 
       2.534457917122e-05       2.083039592329e-02 
       2.563805556647e-05       2.106189732016e-02 
       2.593493025822e-05       2.129597057129e-02 
       2.623524259688e-05       2.153264609220e-02 
       2.653903238852e-05       2.177195153451e-02 
       2.684633990017e-05       2.201391681932e-02 
       2.715720586509e-05       2.225857117048e-02 
       2.747167148823e-05       2.250594447105e-02 
       2.778977845167e-05       2.275606693622e-02 
       2.811156892014e-05       2.300896911703e-02 
       2.843708554663e-05       2.326468190397e-02 
       2.876637147800e-05       2.352323653218e-02 
       2.909947036075e-05       2.378466457819e-02 
       2.943642634678e-05       2.404899797768e-02 
       2.977728409924e-05       2.431626901524e-02 
       3.012208879845e-05       2.458651033597e-02 
       3.047088614791e-05       2.485975494773e-02 
       3.082372238031e-05       2.513603622624e-02 
       3.118064426374e-05       2.541538791445e-02 
       3.154169910778e-05       2.569784413385e-02 
       3.190693476988e-05       2.598343938357e-02 
       3.227639966162e-05       2.627220854612e-02 
       3.265014275518e-05       2.656418689171e-02 
       3.302821358979e-05       2.685941007136e-02 
       3.341066227834e-05       2.715791416210e-02 
       3.379753951399e-05       2.745973562147e-02 
       3.418889657688e-05       2.776491129938e-02 
       3.458478534099e-05       2.807347847613e-02 
       3.498525828094e-05       2.838547484786e-02 
       3.539036847897e-05       2.870093852651e-02 
       3.580016963202e-05       2.901990795134e-02 
       3.621471605877e-05       2.934242223291e-02 
       3.663406270690e-05       2.966852066293e-02 
       3.705826516037e-05       2.999824308962e-02 
       3.748737964675e-05       3.033162981757e-02 
       3.792146304469e-05       3.066872147264e-02 
       3.836057289149e-05       3.100955928933e-02 
       3.880476739067e-05       3.135418497589e-02 
       3.925410541973e-05       3.170264059877e-02 
       3.970864653795e-05       3.205496885790e-02 
       4.016845099426e-05       3.241121222479e-02 
       4.063357973524e-05       3.277141457870e-02 
       4.110409441320e-05       3.313561906769e-02 
       4.158005739435e-05       3.350387182015e-02 
       4.206153176708e-05       3.387621779795e-02 
       4.254858135027e-05       3.425270086154e-02 
       4.304127070184e-05       3.463336775694e-02 
       4.353966512722e-05       3.501826499275e-02 
       4.404383068805e-05       3.540743961634e-02 
       4.455383421094e-05       3.580093916773e-02 
       4.506974329629e-05       3.619881158594e-02 
       4.559162632729e-05       3.660110559884e-02 
       4.611955247898e-05       3.700787026332e-02 
       4.665359172740e-05       3.741915520417e-02 
       4.719381485887e-05       3.783501163384e-02 
       4.774029347938e-05       3.825548854894e-02 
       4.829310002407e-05       3.868063700780e-02 
       4.885230776687e-05       3.911051068363e-02 
       4.941799083015e-05       3.954516210078e-02 
       4.999022419458e-05       3.998464372637e-02 
       5.056908370909e-05       4.042900947984e-02 
       5.115464610086e-05       4.087831265008e-02 
       5.174698898557e-05       4.133260978457e-02 
       5.234619087761e-05       4.179195460363e-02 
       5.295233120056e-05       4.225640407412e-02 
       5.356549029765e-05       4.272601481309e-02 
       5.418574944246e-05       4.320084388212e-02 
       5.481319084967e-05       4.368095001248e-02 
       5.544789768595e-05       4.416639086351e-02 
       5.608995408101e-05       4.465722665146e-02 
       5.673944513874e-05       4.515351650968e-02 
       5.739645694845e-05       4.565532160785e-02 
       5.806107659637e-05       4.616270290638e-02 
       5.873339217709e-05       4.667572270500e-02 
       5.941349280534e-05       4.719444320317e-02 
       6.010146862770e-05       4.771892768416e-02 
       6.079741083462e-05       4.824924075861e-02 
       6.150141167250e-05       4.878544696866e-02 
       6.221356445589e-05       4.932761001930e-02 
       6.293396357985e-05       4.987579977943e-02 
       6.366270453251e-05       5.043008021615e-02 
       6.439988390771e-05       5.099052075884e-02 
       6.514559941776e-05       5.155718720401e-02 
       6.589994990645e-05       5.213015159967e-02 
       6.666303536213e-05       5.270948307214e-02 
       6.743495693093e-05       5.329525181609e-02 
       6.821581693023e-05       5.388752942873e-02 
       6.900571886217e-05       5.448638932756e-02 
       6.980476742741e-05       5.509190302503e-02 
       7.061306853896e-05       5.570414497459e-02 
       7.143072933625e-05       5.632319009582e-02 
       7.225785819936e-05       5.694911386852e-02 
       7.309456476329e-05       5.758199270422e-02 
       7.394095993262e-05       5.822190395001e-02 
       7.479715589609e-05       5.886892602061e-02 
       7.566326614156e-05       5.952313682156e-02 
       7.653940547100e-05       6.018461729835e-02 
       7.742569001573e-05       6.085344732272e-02 
       7.832223725181e-05       6.152970945171e-02 
       7.922916601560e-05       6.221348587007e-02 
       8.014659651953e-05       6.290485980346e-02 
       8.107465036801e-05       6.360391610237e-02 
       8.201345057358e-05       6.431073960047e-02 
       8.296312157320e-05       6.502541679712e-02 
       8.392378924471e-05       6.574803488988e-02 
       8.489558092359e-05       6.647868179298e-02 
       8.587862541976e-05       6.721744684126e-02 
       8.687305303471e-05       6.796442032971e-02 
       8.787899557875e-05       6.871969322094e-02 
       8.889658638846e-05       6.948335782114e-02 
       8.992596034440e-05       7.025550723613e-02 
       9.096725388899e-05       7.103623580257e-02 
       9.202060504454e-05       7.182563865288e-02 
       9.308615343163e-05       7.262381146381e-02 
       9.416404028752e-05       7.343085301964e-02 
       9.525440848495e-05       7.424686080187e-02 
       9.635740255106e-05       7.507193499848e-02 
       9.747316868650e-05       7.590617682759e-02 
       9.860185478487e-05       7.674968623538e-02 
       9.974361045230e-05       7.760256706061e-02 
       1.008985870272e-04       7.846492334250e-02 
       1.020669376006e-04       7.933686026378e-02 
       1.032488170360e-04       8.021848417328e-02 
       1.044443819903e-04       8.110990263023e-02 
       1.056537909342e-04       8.201122433808e-02 
       1.068772041737e-04       8.292255918304e-02 
       1.081147838709e-04       8.384401845576e-02 
       1.093666940655e-04       8.477571427543e-02 
       1.106331006970e-04       8.571776067022e-02 
       1.119141716262e-04       8.667027235689e-02 
       1.132100766576e-04       8.763336533921e-02 
       1.145209875620e-04       8.860715730383e-02 
       1.158470780993e-04       8.959176676566e-02 
       1.171885240412e-04       9.058731355411e-02 
       1.185455031952e-04       9.159391991918e-02 
       1.199181954271e-04       9.261170778403e-02 
       1.213067826860e-04       9.364080147289e-02 
       1.227114490275e-04       9.468132644400e-02 
       1.241323806387e-04       9.573340958621e-02 
       1.255697658625e-04       9.679717915200e-02 
       1.270237952227e-04       9.787276471987e-02 
       1.284946614494e-04       9.896029744709e-02 
       1.299825595043e-04       1.000599097846e-01 
       1.314876866067e-04       1.011717360146e-01 
       1.330102422595e-04       1.022959113690e-01 
       1.345504282758e-04       1.034325728544e-01 
       1.361084488057e-04       1.045818591478e-01 
       1.376845103630e-04       1.057439099783e-01 
       1.392788218531e-04       1.069188672094e-01 
       1.408915946001e-04       1.081068739685e-01 
       1.425230423754e-04       1.093080750551e-01 
       1.441733814255e-04       1.105226160345e-01 
       1.458428305013e-04       1.117506460247e-01 
       1.475316108862e-04       1.129923141287e-01 
       1.492399464263e-04       1.142477714189e-01 
       1.509680635597e-04       1.155171707797e-01 
       1.527161913464e-04       1.168006668257e-01 
       1.544845614988e-04       1.180984162563e-01 
       1.562734084126e-04       1.194105765099e-01 
       1.580829691973e-04       1.207373074440e-01 
       1.599134837084e-04       1.220787705705e-01 
       1.617651945786e-04       1.234351296151e-01 
       1.636383472500e-04       1.248065492382e-01 
       1.655331900072e-04       1.261931963001e-01 
       1.674499740094e-04       1.275952398821e-01 
       1.693889533242e-04       1.290128504911e-01 
       1.713503849614e-04       1.304462005528e-01 
       1.733345289065e-04       1.318954642541e-01 
       1.753416481556e-04       1.333608182581e-01 
       1.773720087503e-04       1.348424407036e-01 
       1.794258798126e-04       1.363405114956e-01 
       1.815035335809e-04       1.378552133108e-01 
       1.836052454460e-04       1.393867299455e-01 
       1.857312939875e-04       1.409352479387e-01 
       1.878819610109e-04       1.425009557808e-01 
       1.900575315847e-04       1.440840428474e-01 
       1.922582940784e-04       1.456847021162e-01 
       1.944845402008e-04       1.473031284639e-01 
       1.967365650383e-04       1.489395180288e-01 
       1.990146670944e-04       1.505940699996e-01 
       2.013191483291e-04       1.522669855829e-01 
       2.036503141988e-04       1.539584672137e-01 
       2.060084736971e-04       1.556687210458e-01 
       2.083939393954e-04       1.573979546243e-01 
       2.108070274847e-04       1.591463776798e-01 
       2.132480578171e-04       1.609142027063e-01 
       2.157173539486e-04       1.627016439772e-01 
       2.182152431817e-04       1.645089192865e-01 
       2.207420566089e-04       1.663362469781e-01 
       2.232981291567e-04       1.681838492552e-01 
       2.258837996296e-04       1.700519505275e-01 
       2.284994107554e-04       1.719407770153e-01 
       2.311453092307e-04       1.738505579313e-01 
       2.338218457663e-04       1.757815255607e-01 
       2.365293751343e-04       1.777339128142e-01 
       2.392682562148e-04       1.797079559047e-01 
       2.420388520435e-04       1.817038949359e-01 
       2.448415298599e-04       1.837219733796e-01 
       2.476766611558e-04       1.857624331260e-01 
       2.505446217249e-04       1.878255226100e-01 
       2.534457917122e-04       1.899114910078e-01 
       2.563805556647e-04       1.920205910122e-01 
       2.593493025822e-04       1.941530796339e-01 
       2.623524259688e-04       1.963092131848e-01 
       2.653903238852e-04       1.984892521249e-01 
       2.684633990017e-04       2.006934609763e-01 
       2.715720586509e-04       2.029221070589e-01 
       2.747167148823e-04       2.051754590564e-01 
       2.778977845167e-04       2.074537896476e-01 
       2.811156892014e-04       2.097573740567e-01 
       2.843708554663e-04       2.120864904996e-01 
       2.876637147800e-04       2.144414203486e-01 
       2.909947036075e-04       2.168224487608e-01 
       2.943642634678e-04       2.192298622640e-01 
       2.977728409924e-04       2.216639518955e-01 
       3.012208879845e-04       2.241250112801e-01 
       3.047088614791e-04       2.266133372373e-01 
       3.082372238031e-04       2.291292298226e-01 
       3.118064426374e-04       2.316729926972e-01 
       3.154169910778e-04       2.342449321269e-01 
       3.190693476988e-04       2.368453580749e-01 
       3.227639966162e-04       2.394745833608e-01 
       3.265014275518e-04       2.421329254349e-01 
       3.302821358979e-04       2.448207038468e-01 
       3.341066227834e-04       2.475382422272e-01 
       3.379753951399e-04       2.502858672677e-01 
       3.418889657689e-04       2.530639095935e-01 
       3.458478534099e-04       2.558727024567e-01 
       3.498525828094e-04       2.587125839482e-01 
       3.539036847897e-04       2.615838954686e-01 
       3.580016963202e-04       2.644869806022e-01 
       3.621471605877e-04       2.674221887852e-01 
       3.663406270690e-04       2.703898714808e-01 
       3.705826516037e-04       2.733903849046e-01 
       3.748737964675e-04       2.764240883735e-01 
       3.792146304469e-04       2.794913459698e-01 
       3.836057289149e-04       2.825925244901e-01 
       3.880476739067e-04       2.857279953148e-01 
       3.925410541973e-04       2.888981334971e-01 
       3.970864653795e-04       2.921033182402e-01 
       4.016845099426e-04       2.953439323379e-01 
       4.063357973524e-04       2.986203632917e-01 
       4.110409441320e-04       3.019330017828e-01 
       4.158005739435e-04       3.052822436314e-01 
       4.206153176708e-04       3.086684881347e-01 
       4.254858135027e-04       3.120921384990e-01 
       4.304127070184e-04       3.155536031200e-01 
       4.353966512722e-04       3.190532939343e-01 
       4.404383068806e-04       3.225916272972e-01 
       4.455383421094e-04       3.261690247393e-01 
       4.506974329629e-04       3.297859095005e-01 
       4.559162632729e-04       3.334427125942e-01 
       4.611955247898e-04       3.371398676199e-01 
       4.665359172740e-04       3.408778131269e-01 
       4.719381485887e-04       3.446569926520e-01 
       4.774029347938e-04       3.484778531981e-01 
       4.829310002407e-04       3.523408469895e-01 
       4.885230776687e-04       3.562464308059e-01 
       4.941799083015e-04       3.601950663382e-01 
       4.999022419458e-04       3.641872202818e-01 
       5.056908370909e-04       3.682233635864e-01 
       5.115464610086e-04       3.723039703974e-01 
       5.174698898557e-04       3.764295224205e-01 
       5.234619087761e-04       3.806005059652e-01 
       5.295233120056e-04       3.848174105574e-01 
       5.356549029765e-04       3.890807318905e-01 
       5.418574944246e-04       3.933909713426e-01 
       5.481319084967e-04       3.977486305615e-01 
       5.544789768595e-04       4.021542261729e-01 
       5.608995408101e-04       4.066082666232e-01 
       5.673944513874e-04       4.111112780315e-01 
       5.739645694845e-04       4.156637851509e-01 
       5.806107659637e-04       4.202663162416e-01 
       5.873339217709e-04       4.249194114895e-01 
       5.941349280534e-04       4.296236162363e-01 
       6.010146862770e-04       4.343794667272e-01 
       6.079741083463e-04       4.391875207764e-01 
       6.150141167251e-04       4.440483360479e-01 
       6.221356445589e-04       4.489624756902e-01 
       6.293396357985e-04       4.539305093637e-01 
       6.366270453252e-04       4.589530106579e-01 
       6.439988390771e-04       4.640305560024e-01 
       6.514559941776e-04       4.691637339319e-01 
       6.589994990645e-04       4.743531351757e-01 
       6.666303536213e-04       4.795993563266e-01 
       6.743495693093e-04       4.849029975446e-01 
       6.821581693023e-04       4.902646672673e-01 
       6.900571886217e-04       4.956849798733e-01 
       6.980476742741e-04       5.011645535929e-01 
       7.061306853896e-04       5.067040151143e-01 
       7.143072933626e-04       5.123039938146e-01 
       7.225785819936e-04       5.179651226269e-01 
       7.309456476329e-04       5.236880502064e-01 
       7.394095993262e-04       5.294734223423e-01 
       7.479715589609e-04       5.353218928136e-01 
       7.566326614156e-04       5.412341237470e-01 
       7.653940547100e-04       5.472107773122e-01 
       7.742569001573e-04       5.532525267481e-01 
       7.832223725181e-04       5.593600525144e-01 
       7.922916601560e-04       5.655340361232e-01 
       8.014659651953e-04       5.717751678766e-01 
