# Transfer functions T_i(k) for adiabatic (AD) mode (normalized to initial curvature=1) at redshift z=99
# for k=1.0063e-05 to 722.317 h/Mpc,
# number of wavenumbers equal to 3929
# t_i   stands for theta_i(k,z) with above normalization 
# t_tot stands for (sum_i [rho_i+p_i] theta_i)/(sum_i [rho_i+p_i]))(k,z)
#
#    1:k (h/Mpc)              2:t_g                    3:t_b                    4:t_cdm                  5:t_dmeff                6:t_ur                   7:t_tot              
       1.006301081809e-05       1.614720747331e-08       1.614737511201e-08       1.614737533383e-08       1.614737533257e-08       1.614719677755e-08       1.614736853629e-08 
       1.010945956559e-05       1.629616337504e-08       1.629633399312e-08       1.629633421827e-08       1.629633421699e-08       1.629615248588e-08       1.629632729999e-08 
       1.015612271078e-05       1.644649752746e-08       1.644667117904e-08       1.644667140758e-08       1.644667140628e-08       1.644648644135e-08       1.644666436636e-08 
       1.020300124325e-05       1.659822267297e-08       1.659839941316e-08       1.659839964515e-08       1.659839964382e-08       1.659821138630e-08       1.659839247877e-08 
       1.025009615720e-05       1.675135168361e-08       1.675153156854e-08       1.675153180402e-08       1.675153180268e-08       1.675134019270e-08       1.675152451020e-08 
       1.029740845140e-05       1.690589754988e-08       1.690608063671e-08       1.690608087576e-08       1.690608087439e-08       1.690588585099e-08       1.690607345218e-08 
       1.034493912922e-05       1.706187338467e-08       1.706205973161e-08       1.706205997427e-08       1.706205997289e-08       1.706186147399e-08       1.706205241858e-08 
       1.039268919868e-05       1.721929241025e-08       1.721948207658e-08       1.721948232292e-08       1.721948232151e-08       1.721928028388e-08       1.721947463271e-08 
       1.044065967245e-05       1.737816798845e-08       1.737836103454e-08       1.737836128462e-08       1.737836128319e-08       1.737815564245e-08       1.737835345745e-08 
       1.048885156787e-05       1.753851358983e-08       1.753871007715e-08       1.753871033103e-08       1.753871032958e-08       1.753850102015e-08       1.753870236441e-08 
       1.053726590697e-05       1.770034282081e-08       1.770054281198e-08       1.770054306972e-08       1.770054306825e-08       1.770033002336e-08       1.770053496111e-08 
       1.058590371650e-05       1.786366939625e-08       1.786387295504e-08       1.786387321670e-08       1.786387321520e-08       1.786365636686e-08       1.786386496352e-08 
       1.063476602796e-05       1.802850718547e-08       1.802871437680e-08       1.802871464246e-08       1.802871464093e-08       1.802849391987e-08       1.802870624207e-08 
       1.068385387761e-05       1.819487016910e-08       1.819508105910e-08       1.819508132881e-08       1.819508132727e-08       1.819485666295e-08       1.819507277855e-08 
       1.073316830647e-05       1.836277245377e-08       1.836298710979e-08       1.836298738362e-08       1.836298738206e-08       1.836275870266e-08       1.836297868075e-08 
       1.078271036040e-05       1.853222828219e-08       1.853244677282e-08       1.853244705084e-08       1.853244704925e-08       1.853221428162e-08       1.853243819258e-08 
       1.083248109005e-05       1.870325202535e-08       1.870347442042e-08       1.870347470271e-08       1.870347470109e-08       1.870323777074e-08       1.870346568623e-08 
       1.088248155096e-05       1.887585819623e-08       1.887608456689e-08       1.887608485350e-08       1.887608485186e-08       1.887584368292e-08       1.887607567593e-08 
       1.093271280351e-05       1.905006143720e-08       1.905029185587e-08       1.905029214689e-08       1.905029214523e-08       1.905004666044e-08       1.905028280528e-08 
       1.098317591298e-05       1.922587651950e-08       1.922611105996e-08       1.922611135546e-08       1.922611135377e-08       1.922586147445e-08       1.922610184683e-08 
       1.103387194959e-05       1.940331836177e-08       1.940355709915e-08       1.940355739921e-08       1.940355739748e-08       1.940330304349e-08       1.940354772051e-08 
       1.108480198847e-05       1.958240201254e-08       1.958264502336e-08       1.958264532804e-08       1.958264532629e-08       1.958238641602e-08       1.958263547618e-08 
       1.113596710972e-05       1.976314266300e-08       1.976339002518e-08       1.976339033457e-08       1.976339033279e-08       1.976312678313e-08       1.976338030638e-08 
       1.118736839845e-05       1.994555564395e-08       1.994580743684e-08       1.994580775101e-08       1.994580774921e-08       1.994553947552e-08       1.994579754329e-08 
       1.123900694474e-05       2.012965642892e-08       2.012991273335e-08       2.012991305238e-08       2.012991305055e-08       2.012963996663e-08       2.012990266185e-08 
       1.129088384374e-05       2.031546062994e-08       2.031572152820e-08       2.031572185219e-08       2.031572185032e-08       2.031544386839e-08       2.031571127551e-08 
       1.134300019562e-05       2.050298402372e-08       2.050324959963e-08       2.050324992865e-08       2.050324992675e-08       2.050296695739e-08       2.050323916243e-08 
       1.139535710565e-05       2.069224249306e-08       2.069251283201e-08       2.069251316613e-08       2.069251316421e-08       2.069222511638e-08       2.069250220691e-08 
       1.144795568419e-05       2.088325210909e-08       2.088352729800e-08       2.088352763732e-08       2.088352763537e-08       2.088323441633e-08       2.088351648158e-08 
       1.150079704675e-05       2.107602906571e-08       2.107630919312e-08       2.107630953773e-08       2.107630953574e-08       2.107601105107e-08       2.107629818188e-08 
       1.155388231395e-05       2.127058972060e-08       2.127087487667e-08       2.127087522665e-08       2.127087522464e-08       2.127057137815e-08       2.127086366705e-08 
       1.160721261161e-05       2.146695057638e-08       2.146724085295e-08       2.146724120840e-08       2.146724120635e-08       2.146693190009e-08       2.146722944131e-08 
       1.166078907075e-05       2.166512828105e-08       2.166542377164e-08       2.166542413265e-08       2.166542413057e-08       2.166510926480e-08       2.166541215429e-08 
       1.171461282758e-05       2.186513966476e-08       2.186544046462e-08       2.186544083128e-08       2.186544082917e-08       2.186512030228e-08       2.186542863780e-08 
       1.176868502358e-05       2.206700166595e-08       2.206730787208e-08       2.206730824448e-08       2.206730824234e-08       2.206698195087e-08       2.206729583194e-08 
       1.182300680550e-05       2.227073142624e-08       2.227104313743e-08       2.227104351568e-08       2.227104351350e-08       2.227071135208e-08       2.227103088008e-08 
       1.187757932538e-05       2.247634621929e-08       2.247666353615e-08       2.247666392034e-08       2.247666391812e-08       2.247632577945e-08       2.247665105760e-08 
       1.193240374056e-05       2.268386349228e-08       2.268418651727e-08       2.268418690750e-08       2.268418690525e-08       2.268384268002e-08       2.268417381348e-08 
       1.198748121374e-05       2.289330084416e-08       2.289362968163e-08       2.289363007800e-08       2.289363007571e-08       2.289327965262e-08       2.289361674847e-08 
       1.204281291299e-05       2.310467603187e-08       2.310501078811e-08       2.310501119072e-08       2.310501118840e-08       2.310465445408e-08       2.310499762138e-08 
       1.209840001176e-05       2.331800700392e-08       2.331834778715e-08       2.331834819612e-08       2.331834819376e-08       2.331798503277e-08       2.331833438257e-08 
       1.215424368892e-05       2.353331184241e-08       2.353365876287e-08       2.353365917830e-08       2.353365917590e-08       2.353328947066e-08       2.353364511608e-08 
       1.221034512878e-05       2.375060880812e-08       2.375096197807e-08       2.375096240008e-08       2.375096239764e-08       2.375058602840e-08       2.375094808465e-08 
       1.226670552112e-05       2.396991634087e-08       2.397027587464e-08       2.397027630333e-08       2.397027630085e-08       2.396989314566e-08       2.397026173005e-08 
       1.232332606121e-05       2.419125303677e-08       2.419161905081e-08       2.419161948629e-08       2.419161948378e-08       2.419122941843e-08       2.419160465045e-08 
       1.238020794984e-05       2.441463768022e-08       2.441501029312e-08       2.441501073551e-08       2.441501073295e-08       2.441461363094e-08       2.441499563230e-08 
       1.243735239334e-05       2.464008920789e-08       2.464046854041e-08       2.464046898984e-08       2.464046898724e-08       2.464006471974e-08       2.464045361437e-08 
       1.249476060361e-05       2.486762674658e-08       2.486801292174e-08       2.486801337831e-08       2.486801337567e-08       2.486760181149e-08       2.486799772560e-08 
       1.255243379813e-05       2.509726959703e-08       2.509766274011e-08       2.509766320394e-08       2.509766320126e-08       2.509724420676e-08       2.509764726892e-08 
       1.261037320003e-05       2.532903724758e-08       2.532943748615e-08       2.532943795739e-08       2.532943795466e-08       2.532901139374e-08       2.532942173487e-08 
       1.266858003805e-05       2.556294934218e-08       2.556335680618e-08       2.556335728494e-08       2.556335728216e-08       2.556292301623e-08       2.556334076967e-08 
       1.272705554663e-05       2.579902573101e-08       2.579944055278e-08       2.579944103919e-08       2.579944103637e-08       2.579899892426e-08       2.579942422581e-08 
       1.278580096590e-05       2.603728643573e-08       2.603770875005e-08       2.603770924423e-08       2.603770924137e-08       2.603725913932e-08       2.603769212729e-08 
       1.284481754170e-05       2.627775166796e-08       2.627818161209e-08       2.627818211418e-08       2.627818211127e-08       2.627772387286e-08       2.627816468811e-08 
       1.290410652563e-05       2.652044182162e-08       2.652087953537e-08       2.652088004551e-08       2.652088004255e-08       2.652041351865e-08       2.652086230464e-08 
       1.296366917509e-05       2.676537748818e-08       2.676582311391e-08       2.676582363223e-08       2.676582362922e-08       2.676534866797e-08       2.676580557080e-08 
       1.302350675324e-05       2.701257943951e-08       2.701303312223e-08       2.701303364888e-08       2.701303364582e-08       2.701255009253e-08       2.701301526102e-08 
       1.308362052910e-05       2.726206863963e-08       2.726253052703e-08       2.726253106215e-08       2.726253105904e-08       2.726203875618e-08       2.726251234187e-08 
       1.314401177754e-05       2.751386625877e-08       2.751433650126e-08       2.751433704499e-08       2.751433704183e-08       2.751383582895e-08       2.751431798620e-08 
       1.320468177933e-05       2.776799365472e-08       2.776847240547e-08       2.776847295796e-08       2.776847295475e-08       2.776796266846e-08       2.776845355446e-08 
       1.326563182111e-05       2.802447237060e-08       2.802495978564e-08       2.802496034704e-08       2.802496034378e-08       2.802444081764e-08       2.802494059250e-08 
       1.332686319551e-05       2.828332417908e-08       2.828382041730e-08       2.828382098776e-08       2.828382098445e-08       2.828329204898e-08       2.828380087576e-08 
       1.338837720109e-05       2.854457102268e-08       2.854507624590e-08       2.854507682559e-08       2.854507682222e-08       2.854453830479e-08       2.854505634956e-08 
       1.345017514242e-05       2.880823507058e-08       2.880874944362e-08       2.880875003269e-08       2.880875002927e-08       2.880820175406e-08       2.880872918595e-08 
       1.351225833008e-05       2.907433868085e-08       2.907486237158e-08       2.907486297018e-08       2.907486296670e-08       2.907430475467e-08       2.907484174594e-08 
       1.357462808072e-05       2.934290443136e-08       2.934343761072e-08       2.934343821903e-08       2.934343821549e-08       2.934286988426e-08       2.934341661036e-08 
       1.363728571705e-05       2.961395509505e-08       2.961449793717e-08       2.961449855535e-08       2.961449855175e-08       2.961391991559e-08       2.961447655521e-08 
       1.370023256788e-05       2.988751366757e-08       2.988806634977e-08       2.988806697799e-08       2.988806697434e-08       2.988747784407e-08       2.988804457919e-08 
       1.376346996818e-05       3.016360334920e-08       3.016416605209e-08       3.016416669053e-08       3.016416668681e-08       3.016356686978e-08       3.016414388574e-08 
       1.382699925906e-05       3.044224755536e-08       3.044282046290e-08       3.044282111173e-08       3.044282110795e-08       3.044221040794e-08       3.044279789351e-08 
       1.389082178782e-05       3.072346993152e-08       3.072405323104e-08       3.072405389043e-08       3.072405388659e-08       3.072343210376e-08       3.072403025120e-08 
       1.395493890799e-05       3.100729432312e-08       3.100788820542e-08       3.100788887557e-08       3.100788887167e-08       3.100725580248e-08       3.100786480759e-08 
       1.401935197933e-05       3.129374480793e-08       3.129434946734e-08       3.129435014843e-08       3.129435014446e-08       3.129370558161e-08       3.129432564383e-08 
       1.408406236791e-05       3.158284567882e-08       3.158346131326e-08       3.158346200548e-08       3.158346200144e-08       3.158280573380e-08       3.158343705624e-08 
       1.414907144607e-05       3.187462146268e-08       3.187524827372e-08       3.187524897726e-08       3.187524897316e-08       3.187458078569e-08       3.187522357522e-08 
       1.421438059250e-05       3.216909690489e-08       3.216973509784e-08       3.216973581289e-08       3.216973580873e-08       3.216905548244e-08       3.216970994974e-08 
       1.427999119225e-05       3.246612704640e-08       3.246677675369e-08       3.246677750039e-08       3.246677749615e-08       3.246608478922e-08       3.246675116549e-08 
       1.434590463677e-05       3.276603698087e-08       3.276669849695e-08       3.276669925529e-08       3.276669925098e-08       3.276599395156e-08       3.276667244206e-08 
       1.441212232393e-05       3.306875016306e-08       3.306942369692e-08       3.306942446730e-08       3.306942446292e-08       3.306870634658e-08       3.306939716721e-08 
       1.447864565804e-05       3.337427634142e-08       3.337496211633e-08       3.337496289923e-08       3.337496289478e-08       3.337423172219e-08       3.337493510318e-08 
       1.454547604991e-05       3.368261092526e-08       3.368330915421e-08       3.368330994977e-08       3.368330994524e-08       3.368256548907e-08       3.368328164913e-08 
       1.461261491686e-05       3.399378795220e-08       3.399449885717e-08       3.399449966555e-08       3.399449966094e-08       3.399374168432e-08       3.399447085134e-08 
       1.468006368273e-05       3.430784615739e-08       3.430856997254e-08       3.430857079397e-08       3.430857078929e-08       3.430779904241e-08       3.430854145671e-08 
       1.474782377797e-05       3.461217760795e-08       3.461290623985e-08       3.461290703924e-08       3.461290703448e-08       3.461212984821e-08       3.461287750681e-08 
       1.481589663959e-05       3.493205740565e-08       3.493279933808e-08       3.493280015060e-08       3.493280014576e-08       3.493200876953e-08       3.493277007931e-08 
       1.488428371126e-05       3.525489943370e-08       3.525565491340e-08       3.525565573929e-08       3.525565573437e-08       3.525484990494e-08       3.525562511913e-08 
       1.495298644332e-05       3.558073094652e-08       3.558150022469e-08       3.558150106420e-08       3.558150105920e-08       3.558068050854e-08       3.558146988501e-08 
       1.502200629278e-05       3.590957936308e-08       3.591036269551e-08       3.591036354888e-08       3.591036354379e-08       3.590952799901e-08       3.591033180028e-08 
       1.509134472338e-05       3.624147250855e-08       3.624227015566e-08       3.624227102314e-08       3.624227101797e-08       3.624142020123e-08       3.624223869460e-08 
       1.516100320565e-05       3.657643827034e-08       3.657725049722e-08       3.657725137907e-08       3.657725137381e-08       3.657638500225e-08       3.657721845983e-08 
       1.523098321685e-05       3.691450478100e-08       3.691533185746e-08       3.691533275395e-08       3.691533274860e-08       3.691445053434e-08       3.691529923309e-08 
       1.530128624112e-05       3.725570041261e-08       3.725654261327e-08       3.725654352465e-08       3.725654351922e-08       3.725564516923e-08       3.725650939105e-08 
       1.537191376940e-05       3.760005394068e-08       3.760091154512e-08       3.760091247166e-08       3.760091246614e-08       3.759999768211e-08       3.760087771398e-08 
       1.544286729953e-05       3.794759463707e-08       3.794846793010e-08       3.794846887208e-08       3.794846886646e-08       3.794753734448e-08       3.794843347879e-08 
       1.551414833628e-05       3.829835209241e-08       3.829924136420e-08       3.829924232190e-08       3.829924231618e-08       3.829829374663e-08       3.829920628123e-08 
       1.558575839135e-05       3.865234067539e-08       3.865324621045e-08       3.865324718417e-08       3.865324717835e-08       3.865228125671e-08       3.865321048459e-08 
       1.565769898342e-05       3.900959615719e-08       3.901051824932e-08       3.901051923934e-08       3.901051923343e-08       3.900953564570e-08       3.901048186894e-08 
       1.572997163817e-05       3.937015396671e-08       3.937109291881e-08       3.937109392541e-08       3.937109391940e-08       3.937009234222e-08       3.937105587192e-08 
       1.580257788833e-05       3.973404333833e-08       3.973499945787e-08       3.973500048135e-08       3.973500047523e-08       3.973398058031e-08       3.973496173229e-08 
       1.587551927372e-05       4.010139338826e-08       4.010236706329e-08       4.010236810421e-08       4.010236809799e-08       4.010132947407e-08       4.010232864388e-08 
       1.594879734125e-05       4.047224339795e-08       4.047323506421e-08       4.047323611503e-08       4.047323610871e-08       4.047217833538e-08       4.047319592796e-08 
       1.602241364497e-05       4.084653041934e-08       4.084754038059e-08       4.084754144973e-08       4.084754144330e-08       4.084646415562e-08       4.084750052147e-08 
       1.609636974611e-05       4.122428205386e-08       4.122531065018e-08       4.122531173798e-08       4.122531173145e-08       4.122421456664e-08       4.122527005474e-08 
       1.617066721310e-05       4.160553029076e-08       4.160657786854e-08       4.160657897537e-08       4.160657896872e-08       4.160546155726e-08       4.160653652312e-08 
       1.624530762162e-05       4.199032643166e-08       4.199139335894e-08       4.199139448522e-08       4.199139447846e-08       4.199025642821e-08       4.199135124905e-08 
       1.632029255461e-05       4.237863185383e-08       4.237971844619e-08       4.237971959200e-08       4.237971958512e-08       4.237856055893e-08       4.237967555915e-08 
       1.639562360232e-05       4.277052754057e-08       4.277163415895e-08       4.277163532463e-08       4.277163531763e-08       4.277045493032e-08       4.277159048048e-08 
       1.647130236236e-05       4.316551259710e-08       4.316663916639e-08       4.316664034897e-08       4.316664034185e-08       4.316543866557e-08       4.316659469696e-08 
       1.654733043967e-05       4.356459560751e-08       4.356574286776e-08       4.356574407050e-08       4.356574406327e-08       4.356452031399e-08       4.356569758028e-08 
       1.662370944665e-05       4.396735255578e-08       4.396852087389e-08       4.396852209711e-08       4.396852208975e-08       4.396727587537e-08       4.396847475381e-08 
