# total lensed [l(l+1)/2pi] C_l's (units: [microK]^2)
# for l=2 to 2500, i.e. number of multipoles equal to 2499
#
# -> if you don't want to see such a header, set 'headers' to 'no' in input file
# -> for CMB lensing (d), these are C_l^dd for the deflection field.
#    Remember the conversion factors:
#    C_l^dd (deflection) = l(l+1) C_l^phi-phi
#    C_l^gg (shear/convergence) = 1/4 (l(l+1))^2 C_l^phi-phi
#
# 1:l     2:TT                     3:EE                     4:BB                     5:TE                     6:dd                     7:dT                     8:dE                 
    2       1.156131006633e+03       3.965685732851e-02       1.706722661874e-06       3.017270115816e+00       5.143440346979e-08       3.476377307700e-03      -1.439127552080e-05 
    3       1.082088413940e+03       5.009930395276e-02       3.414240825411e-06       3.403957869285e+00       6.337603048293e-08       3.466985500229e-03      -1.528336052277e-05 
    4       1.015308767692e+03       4.259815094746e-02       5.692152047773e-06       3.177278417432e+00       7.337649623168e-08       3.376547800158e-03      -1.275242386129e-05 
    5       9.656354768222e+02       2.788679667859e-02       8.541469894864e-06       2.691929886521e+00       8.208043376125e-08       3.256998545751e-03      -8.501798202629e-06 
    6       9.312874177941e+02       1.531421779528e-02       1.196342198552e-05       2.150306684390e+00       8.971645688326e-08       3.127961163383e-03      -3.941551897084e-06 
    7       9.085208961271e+02       8.198441820016e-03       1.595942559661e-05       1.669629693286e+00       9.646935110528e-08       2.998986558902e-03      -1.379040276123e-07 
    8       8.945707378037e+02       5.306271777123e-03       2.053106013318e-05       1.301061005716e+00       1.024831940390e-07       2.875320281943e-03       2.297559662820e-06 
    9       8.871294131006e+02       4.255250360420e-03       2.568003730836e-05       1.055128742080e+00       1.078548974284e-07       2.759625879149e-03       3.216337074547e-06 
   10       8.842697269403e+02       3.588208306361e-03       3.140816993570e-05       9.191483664854e-01       1.126460510777e-07       2.652230476587e-03       2.856302400947e-06 
   11       8.852489745757e+02       2.986701233449e-03       3.771734026226e-05       8.686845958201e-01       1.141773990029e-07       2.564108992150e-03       1.710755208797e-06 
   12       8.889396287506e+02       2.597175951695e-03       4.460946876327e-05       8.761953505798e-01       1.178801241967e-07       2.463260391240e-03       2.991340728602e-07 
   13       8.948094247228e+02       2.487652334936e-03       5.208648427943e-05       9.174906537306e-01       1.211917099319e-07       2.375283930537e-03      -8.995431455764e-07 
   14       9.023149345277e+02       2.564519486567e-03       6.015029630748e-05       9.747070656683e-01       1.241554192859e-07       2.284092755998e-03      -1.622665415452e-06 
   15       9.114181401968e+02       2.728058212858e-03       6.880277015626e-05       1.036958285217e+00       1.268075603768e-07       2.201656010273e-03      -1.781991236149e-06 
   16       9.216531271171e+02       2.973661347592e-03       7.804570555832e-05       1.099367575412e+00       1.291808537851e-07       2.124467933818e-03      -1.485294445420e-06 
   17       9.329632727256e+02       3.357590276573e-03       8.788081918617e-05       1.161567690525e+00       1.313028141214e-07       2.051029595111e-03      -9.480583747297e-07 
   18       9.449670601030e+02       3.921365308288e-03       9.830972963684e-05       1.225479469261e+00       1.331456802987e-07       1.980683180724e-03      -4.194177522028e-07 
   19       9.577490513160e+02       4.663113689058e-03       1.093339571289e-04       1.293174833781e+00       1.348841026578e-07       1.915497892632e-03      -5.308706726199e-08 
   20       9.711529242244e+02       5.561705182848e-03       1.209548996894e-04       1.366346230384e+00       1.363745030870e-07       1.853921199985e-03       3.645012913136e-08 
   21       9.852242104480e+02       6.610649143138e-03       1.331738591794e-04       1.444605701686e+00       1.377075852119e-07       1.795996333062e-03      -1.357466394353e-07 
   22       9.998190371734e+02       7.805282480491e-03       1.459920149814e-04       1.526090622386e+00       1.388574151962e-07       1.739654892683e-03      -4.636329119475e-07 
   23       1.014925058312e+03       9.144043222571e-03       1.594104624998e-04       1.607418620837e+00       1.398967260823e-07       1.685490114609e-03      -8.367016694122e-07 
   24       1.030416456931e+03       1.062510825573e-02       1.734301864231e-04       1.684395890340e+00       1.407757525825e-07       1.633486569667e-03      -1.124569984310e-06 
   25       1.046372986430e+03       1.224945832846e-02       1.880521137211e-04       1.754640462166e+00       1.415510062566e-07       1.584723512916e-03      -1.264403785635e-06 
   26       1.062794611552e+03       1.402126691299e-02       2.032770813310e-04       1.816430505585e+00       1.422001651568e-07       1.539281790884e-03      -1.231178843525e-06 
   27       1.079575390628e+03       1.595893053252e-02       2.191058863382e-04       1.869224573076e+00       1.427511395474e-07       1.496389902635e-03      -1.072238652544e-06 
   28       1.096514913714e+03       1.808512723671e-02       2.355392640881e-04       1.913106059604e+00       1.431664984952e-07       1.454196330794e-03      -8.745778789683e-07 
   29       1.113690338374e+03       2.041201611403e-02       2.525779662001e-04       1.948788596630e+00       1.435219582582e-07       1.413424947012e-03      -6.907341442447e-07 
   30       1.131183714709e+03       2.294833950628e-02       2.702226982407e-04       1.977508037461e+00       1.438387613696e-07       1.375013460826e-03      -5.732030807374e-07 
   31       1.148993276744e+03       2.570199613030e-02       2.884741196303e-04       2.000477292744e+00       1.440342600248e-07       1.339073578776e-03      -5.736914522603e-07 
   32       1.167137334616e+03       2.867878617229e-02       3.073329366254e-04       2.017085028088e+00       1.441547580953e-07       1.305454286279e-03      -6.764898673126e-07 
   33       1.185567647700e+03       3.188303420199e-02       3.267998448947e-04       2.026005138064e+00       1.442295542442e-07       1.273083569744e-03      -8.277871435071e-07 
   34       1.204183824789e+03       3.531886923804e-02       3.468755176261e-04       2.025807339510e+00       1.442210713287e-07       1.240327633976e-03      -9.617778187759e-07 
   35       1.223018456887e+03       3.899390567051e-02       3.675606438586e-04       2.015540125693e+00       1.441622161288e-07       1.207715895628e-03      -1.052983091180e-06 
   36       1.242103296699e+03       4.291680883175e-02       3.888559067416e-04       1.994335079739e+00       1.440600502244e-07       1.176340879238e-03      -1.086992460063e-06 
   37       1.261432372083e+03       4.709576049890e-02       4.107619652326e-04       1.961415308103e+00       1.438742688065e-07       1.147047041988e-03      -1.053484420849e-06 
   38       1.281025193711e+03       5.153651178760e-02       4.332794186049e-04       1.916670529220e+00       1.436444796918e-07       1.120093326757e-03      -9.676555728505e-07 
   39       1.300875089159e+03       5.624363744827e-02       4.564088328498e-04       1.860278207845e+00       1.434075530644e-07       1.095211490878e-03      -8.599337904733e-07 
   40       1.320925943787e+03       6.122099849582e-02       4.801507517751e-04       1.792560590285e+00       1.431498087368e-07       1.071573792760e-03      -7.724747280569e-07 
   41       1.341104473928e+03       6.647242976495e-02       5.045056646187e-04       1.713846325401e+00       1.428227659820e-07       1.048107966954e-03      -7.478609605995e-07 
   42       1.361441586411e+03       7.200418155561e-02       5.294738932509e-04       1.623980564886e+00       1.424497003684e-07       1.024885527891e-03      -7.845164634781e-07 
   43       1.381982190522e+03       7.782319595353e-02       5.550556703283e-04       1.522669797168e+00       1.420568282934e-07       1.002231348218e-03      -8.624602544684e-07 
   44       1.402749033154e+03       8.393644685562e-02       5.812511686846e-04       1.409613514229e+00       1.416366483107e-07       9.803367627208e-04      -9.533899994759e-07 
   45       1.423748469864e+03       9.035020028282e-02       6.080604617652e-04       1.284499894323e+00       1.411605686344e-07       9.592825338323e-04      -1.027599566359e-06 
   46       1.444995484080e+03       9.706752091599e-02       6.354833934246e-04       1.146994995965e+00       1.406535230299e-07       9.391937320043e-04      -1.081112398099e-06 
   47       1.466492070170e+03       1.040900278364e-01       6.635196673281e-04       9.967476734059e-01       1.401445858804e-07       9.201025345402e-04      -1.118743213010e-06 
   48       1.488217838062e+03       1.114185367113e-01       6.921688788037e-04       8.333903721161e-01       1.396419256841e-07       9.018768727976e-04      -1.147358342520e-06 
   49       1.510128086600e+03       1.190530214741e-01       7.214305115247e-04       6.565374064757e-01       1.391264643426e-07       8.841937325820e-04      -1.176121035279e-06 
   50       1.532174625778e+03       1.269932305742e-01       7.513039315433e-04       4.658289540501e-01       1.385642749156e-07       8.666644010011e-04      -1.214421965884e-06 
   51       1.554379376362e+03       1.352408218307e-01       7.817883751784e-04       2.610811123355e-01       1.379698092590e-07       8.493392608329e-04      -1.264042087659e-06 
   52       1.576777417731e+03       1.437977408224e-01       8.128829521053e-04       4.217359610765e-02       1.373638511229e-07       8.323571617799e-04      -1.324283162176e-06 
   53       1.599395149277e+03       1.526656096255e-01       8.445866443567e-04      -1.909920003404e-01       1.367536170624e-07       8.158000555591e-04      -1.393974633101e-06 
   54       1.622249434295e+03       1.618457192967e-01       8.768983028806e-04      -4.384917741366e-01       1.361290347639e-07       7.996829319162e-04      -1.471418228634e-06 
   55       1.645349964808e+03       1.713388851514e-01       9.098167217794e-04      -7.003843748394e-01       1.354713958317e-07       7.839858099238e-04      -1.554490957030e-06 
   56       1.668709005241e+03       1.811449877155e-01       9.433408905108e-04      -9.767279845204e-01       1.347946629337e-07       7.687890585438e-04      -1.641137909526e-06 
   57       1.692332569742e+03       1.912633045698e-01       9.774697983097e-04      -1.267566804363e+00       1.341169651601e-07       7.541693030836e-04      -1.728960426672e-06 
   58       1.716216698611e+03       2.016926249815e-01       1.012202361589e-03      -1.572925916066e+00       1.334475070238e-07       7.401544584498e-04      -1.815027131969e-06 
   59       1.740346727683e+03       2.124312370417e-01       1.047537423525e-03      -1.892811058882e+00       1.327842799339e-07       7.267165611043e-04      -1.895827282669e-06 
   60       1.764696557709e+03       2.234769148030e-01       1.083473753640e-03      -2.227208406672e+00       1.321115648101e-07       7.137642931906e-04      -1.967222520222e-06 
   61       1.789239740881e+03       2.348266746350e-01       1.120010188261e-03      -2.576083379545e+00       1.314082909965e-07       7.011849822550e-04      -2.025319923838e-06 
   62       1.813987301222e+03       2.464760094827e-01       1.157146089681e-03      -2.939377271500e+00       1.306842203500e-07       6.890056065926e-04      -2.069555340378e-06 
   63       1.838957145529e+03       2.584194591225e-01       1.194880989793e-03      -3.317009466742e+00       1.299548735703e-07       6.772717693552e-04      -2.100552421779e-06 
   64       1.864162646710e+03       2.706508059917e-01       1.233214462283e-03      -3.708878089717e+00       1.292306713959e-07       6.659988019601e-04      -2.119322928302e-06 
   65       1.889612288114e+03       2.831630550033e-01       1.272146126686e-03      -4.114859751532e+00       1.285156740353e-07       6.551677962166e-04      -2.127304043189e-06 
   66       1.915309307863e+03       2.959484133613e-01       1.311675652437e-03      -4.534809296360e+00       1.278062146812e-07       6.447214827343e-04      -2.126396943957e-06 
   67       1.941251343186e+03       3.089982703755e-01       1.351802762931e-03      -4.968559547861e+00       1.270894237383e-07       6.345599556125e-04      -2.119006630315e-06 
   68       1.967434533423e+03       3.223038930556e-01       1.392527302882e-03      -5.415925974565e+00       1.263496110522e-07       6.245765222332e-04      -2.107591124555e-06 
   69       1.993867589482e+03       3.358587216819e-01       1.433849447217e-03      -5.876722350601e+00       1.255942794943e-07       6.147882770568e-04      -2.093053283749e-06 
   70       2.020559949388e+03       3.496565052535e-01       1.475769541985e-03      -6.350747827274e+00       1.248356163427e-07       6.052369998674e-04      -2.075936784558e-06 
   71       2.047517334543e+03       3.636906250200e-01       1.518288050369e-03      -6.837782169368e+00       1.240827626434e-07       5.959505937739e-04      -2.056882177170e-06 
   72       2.074741508089e+03       3.779540926026e-01       1.561405558355e-03      -7.337585627368e+00       1.233411101741e-07       5.869413123048e-04      -2.036633051010e-06 
   73       2.102230033274e+03       3.924395481155e-01       1.605122780406e-03      -7.849898809677e+00       1.226115447478e-07       5.782039230185e-04      -2.016042355125e-06 
   74       2.129976031814e+03       4.071392582874e-01       1.649440565136e-03      -8.374442554833e+00       1.218896343098e-07       5.697138076292e-04      -1.996078873273e-06 
   75       2.157967942261e+03       4.220451145825e-01       1.694359900985e-03      -8.910917803733e+00       1.211647602796e-07       5.614249986491e-04      -1.977833853681e-06 
   76       2.186194563968e+03       4.371483597895e-01       1.739881842426e-03      -9.459017109519e+00       1.204248172779e-07       5.532885141209e-04      -1.962335785650e-06 
   77       2.214661785025e+03       4.524387143790e-01       1.786007260526e-03      -1.001846187287e+01       1.196745066796e-07       5.453178241070e-04      -1.949920283877e-06 
   78       2.243378479915e+03       4.679050866796e-01       1.832737056998e-03      -1.058897169613e+01       1.189219286260e-07       5.375375093570e-04      -1.940701016282e-06 
   79       2.272351363426e+03       4.835358229516e-01       1.880072243605e-03      -1.117025345709e+01       1.181731389647e-07       5.299635234691e-04      -1.934742169721e-06 
   80       2.301584857404e+03       4.993186999396e-01       1.928013946202e-03      -1.176200141984e+01       1.174317400058e-07       5.226022302264e-04      -1.932053423480e-06 
   81       2.331080957499e+03       5.152409174265e-01       1.976563408783e-03      -1.236389734560e+01       1.166984434543e-07       5.154494101965e-04      -1.932584768656e-06 
   82       2.360839099917e+03       5.312890907864e-01       2.025721997525e-03      -1.297561060363e+01       1.159706047950e-07       5.084892365960e-04      -1.936221173406e-06 
   83       2.390856028170e+03       5.474492435382e-01       2.075491204829e-03      -1.359679828205e+01       1.152417284146e-07       5.016932204181e-04      -1.942777094076e-06 
   84       2.421127972147e+03       5.637072384401e-01       2.125872627535e-03      -1.422709988046e+01       1.145045859005e-07       4.950314935568e-04      -1.952000822296e-06 
   85       2.451657892269e+03       5.800501691983e-01       2.176867888558e-03      -1.486612013403e+01       1.137629943515e-07       4.885123535325e-04      -1.963601529384e-06 
   86       2.482449197539e+03       5.964651868940e-01       2.228478709614e-03      -1.551344353203e+01       1.130229268635e-07       4.821505152119e-04      -1.977218598827e-06 
   87       2.513503446998e+03       6.129390818799e-01       2.280706939453e-03      -1.616863950241e+01       1.122889681166e-07       4.759550603259e-04      -1.992406739167e-06 
   88       2.544820255336e+03       6.294582837042e-01       2.333554557466e-03      -1.683126243158e+01       1.115640652982e-07       4.699288820838e-04      -2.008630252066e-06 
   89       2.576397198509e+03       6.460088610341e-01       2.387023677300e-03      -1.750085168424e+01       1.108492637131e-07       4.640681138123e-04      -2.025257158156e-06 
   90       2.608229719347e+03       6.625765215800e-01       2.441116550466e-03      -1.817693162313e+01       1.101434267235e-07       4.583615416198e-04      -2.041553180697e-06 
   91       2.640311033167e+03       6.791466120186e-01       2.495835569944e-03      -1.885901162888e+01       1.094429396593e-07       4.527900010848e-04      -2.056675587029e-06 
   92       2.672632033388e+03       6.957041179175e-01       2.551183273801e-03      -1.954658611974e+01       1.087413973404e-07       4.473257579698e-04      -2.069666887819e-06 
   93       2.705183983985e+03       7.122339206361e-01       2.607162438600e-03      -2.023914405051e+01       1.080322407398e-07       4.419419672938e-04      -2.079671492127e-06 
   94       2.737967265107e+03       7.287216123948e-01       2.663776367886e-03      -2.093619900034e+01       1.073183398130e-07       4.366449240415e-04      -2.086656298413e-06 
   95       2.770983774407e+03       7.451528042217e-01       2.721028653964e-03      -2.163726366775e+01       1.066046494432e-07       4.314478851680e-04      -2.090840145393e-06 
   96       2.804234202018e+03       7.615128833029e-01       2.778923096740e-03      -2.234184094271e+01       1.058953625289e-07       4.263613506905e-04      -2.092487241204e-06 
   97       2.837717974418e+03       7.777870164334e-01       2.837463708562e-03      -2.304942405651e+01       1.051937757636e-07       4.213927980063e-04      -2.091909732102e-06 
   98       2.871433198296e+03       7.939601534686e-01       2.896654719065e-03      -2.375949673172e+01       1.045021477985e-07       4.165464091263e-04      -2.089470325491e-06 
   99       2.905376604419e+03       8.100170307753e-01       2.956500580008e-03      -2.447153333205e+01       1.038215496281e-07       4.118227908265e-04      -2.085584967258e-06 
  100       2.939543491503e+03       8.259421746833e-01       3.017005970122e-03      -2.518499901230e+01       1.031517070324e-07       4.072186877150e-04      -2.080725573445e-06 
  101       2.973927670073e+03       8.417199049364e-01       3.078175799951e-03      -2.589934986829e+01       1.024908349158e-07       4.027266882167e-04      -2.075422816221e-06 
  102       3.008521406336e+03       8.573343381438e-01       3.140015216693e-03      -2.661403308672e+01       1.018354633770e-07       3.983349234741e-04      -2.070268964194e-06 
  103       3.043315366043e+03       8.727693912312e-01       3.202529609044e-03      -2.732848709511e+01       1.011802553474e-07       3.940267591651e-04      -2.065920777028e-06 
  104       3.078300525205e+03       8.880091710426e-01       3.265724430544e-03      -2.804214573696e+01       1.005199825142e-07       3.897863570668e-04      -2.062961530740e-06 
  105       3.113474317076e+03       9.030391956500e-01       3.329604631998e-03      -2.875445111660e+01       9.985649938468e-08       3.856173458849e-04      -2.061448573344e-06 
  106       3.148835214753e+03       9.178453452270e-01       3.394175161056e-03      -2.946484277706e+01       9.919327754682e-08       3.815273340616e-04      -2.061279858489e-06 
  107       3.184380804382e+03       9.324134982330e-01       3.459441139675e-03      -3.017275402154e+01       9.853333065903e-08       3.775222249001e-04      -2.062325308582e-06 
