# total lensed [l(l+1)/2pi] C_l's (units: [microK]^2)
# for l=2 to 2500, i.e. number of multipoles equal to 2499
#
# -> if you don't want to see such a header, set 'headers' to 'no' in input file
# -> for CMB lensing (d), these are C_l^dd for the deflection field.
#    Remember the conversion factors:
#    C_l^dd (deflection) = l(l+1) C_l^phi-phi
#    C_l^gg (shear/convergence) = 1/4 (l(l+1))^2 C_l^phi-phi
#
# 1:l     2:TT                     3:EE                     4:BB                     5:TE                     6:dd                     7:dT                     8:dE                 
    2       1.156077552867e+03       3.965523618686e-02       1.706677325510e-06       3.017162689651e+00       5.143192294416e-08       3.476126864172e-03      -1.439081166776e-05 
    3       1.082038255684e+03       5.009619643452e-02       3.414150029572e-06       3.403771758326e+00       6.337292086029e-08       3.466758158858e-03      -1.528262878144e-05 
    4       1.015258955548e+03       4.259415430975e-02       5.692000452738e-06       3.177003411245e+00       7.337301876605e-08       3.376354599677e-03      -1.275159596739e-05 
    5       9.655833239794e+02       2.788261630682e-02       8.541242010316e-06       2.691558647577e+00       8.207675666579e-08       3.256836750662e-03      -8.501077691524e-06 
    6       9.312311641114e+02       1.531025293254e-02       1.196310214408e-05       2.149838671365e+00       8.971266588123e-08       3.127824394655e-03      -3.941035851163e-06 
    7       9.084596053934e+02       8.194835238354e-03       1.595899793415e-05       1.669071974016e+00       9.646550324937e-08       2.998870032491e-03      -1.375480528685e-07 
    8       8.945035528198e+02       5.303130845004e-03       2.053050857656e-05       1.300415372395e+00       1.024793324531e-07       2.875220212835e-03       2.297845516246e-06 
    9       8.870563971896e+02       4.252656907291e-03       2.567934557103e-05       1.054406917323e+00       1.078510382041e-07       2.759536833030e-03       3.216604742634e-06 
   10       8.841936651855e+02       3.586148373953e-03       3.140732152124e-05       9.184045472857e-01       1.126422052357e-07       2.652145778733e-03       2.856567269864e-06 
   11       8.851739018554e+02       2.985089722935e-03       3.771631847548e-05       8.679987974877e-01       1.141735894616e-07       2.564020898928e-03       1.710928495491e-06 
   12       8.888684274807e+02       2.595915965806e-03       4.460825672837e-05       8.756270773203e-01       1.178763628900e-07       2.463172682689e-03       2.993226671462e-07 
   13       8.947434457157e+02       2.486664617696e-03       5.208506496438e-05       9.170578831586e-01       1.211880013814e-07       2.375199496344e-03      -8.993322501291e-07 
   14       9.022543652076e+02       2.563754031175e-03       6.014865255332e-05       9.743957922301e-01       1.241517787387e-07       2.284010918509e-03      -1.622438662612e-06 
   15       9.113621473824e+02       2.727498456648e-03       6.880088471011e-05       1.036743814105e+00       1.268039870583e-07       2.201575335811e-03      -1.781783980191e-06 
   16       9.216005941048e+02       2.973307974433e-03       7.804356110862e-05       1.099228431972e+00       1.291773389893e-07       2.124390755987e-03      -1.485133703004e-06 
   17       9.329138831648e+02       3.357437629958e-03       8.787839839841e-05       1.161486403303e+00       1.312993657696e-07       2.050957172692e-03      -9.479573406558e-07 
   18       9.449203375414e+02       3.921403298144e-03       9.830701518909e-05       1.225440891052e+00       1.331423028563e-07       1.980612579294e-03      -4.193719692983e-07 
   19       9.577044514723e+02       4.663330366781e-03       1.093309317409e-04       1.293166876823e+00       1.348807901027e-07       1.915427873024e-03      -5.308232257262e-08 
   20       9.711100798909e+02       5.562088622313e-03       1.209515461560e-04       1.366361499707e+00       1.363712551112e-07       1.853854971676e-03       3.643246418252e-08 
   21       9.851829132147e+02       6.611186208351e-03       1.331701603876e-04       1.444637712004e+00       1.377044003969e-07       1.795935219268e-03      -1.357699712462e-07 
   22       9.997792535635e+02       7.805959884042e-03       1.459879539328e-04       1.526133205022e+00       1.388542965782e-07       1.739595976557e-03      -4.636521085940e-07 
   23       1.014886719385e+03       9.144849226814e-03       1.594060223137e-04       1.607467124323e+00       1.398936737716e-07       1.685432457496e-03      -8.367123392675e-07 
   24       1.030379394840e+03       1.062603298226e-02       1.734253503456e-04       1.684447789927e+00       1.407727659375e-07       1.633433460459e-03      -1.124573424185e-06 
   25       1.046336939308e+03       1.225048683562e-02       1.880468651115e-04       1.754693882610e+00       1.415480825581e-07       1.584676312610e-03      -1.264402769624e-06 
   26       1.062759262546e+03       1.402237853077e-02       2.032714036564e-04       1.816483853415e+00       1.421973035033e-07       1.539237911335e-03      -1.231176065489e-06 
   27       1.079540527194e+03       1.596010790844e-02       2.190997631480e-04       1.869276470072e+00       1.427483396763e-07       1.496348267867e-03      -1.072237101028e-06 
   28       1.096480480995e+03       1.808635949738e-02       2.355326789941e-04       1.913155400218e+00       1.431637629434e-07       1.454159280223e-03      -8.745806246458e-07 
   29       1.113656301901e+03       2.041329423217e-02       2.525709028358e-04       1.948834629584e+00       1.435192861137e-07       1.413394440668e-03      -6.907430325570e-07 
   30       1.131150023329e+03       2.294965535098e-02       2.702151402316e-04       1.977550481944e+00       1.438361478545e-07       1.374989249122e-03      -5.732176669270e-07 
   31       1.148959870334e+03       2.570334259310e-02       2.884660505640e-04       2.000516365966e+00       1.440316991755e-07       1.339052989373e-03      -5.737086644938e-07 
   32       1.167104162044e+03       2.868015563555e-02       3.073243400120e-04       2.017121099060e+00       1.441522437604e-07       1.305434802667e-03      -6.765061699859e-07 
   33       1.185534680126e+03       3.188441806157e-02       3.267907041285e-04       2.026038615904e+00       1.442270836942e-07       1.273064096973e-03      -8.277994849836e-07 
   34       1.204151057283e+03       3.532025759176e-02       3.468658159502e-04       2.025838610019e+00       1.442186479502e-07       1.240308739773e-03      -9.617840749954e-07 
   35       1.222985874779e+03       3.899528609893e-02       3.675503643482e-04       2.015569327822e+00       1.441598414979e-07       1.207698324158e-03      -1.052982596214e-06 
   36       1.242070865430e+03       4.291816573442e-02       3.888450322700e-04       1.994361976787e+00       1.440577214394e-07       1.176324993774e-03      -1.086986617568e-06 
   37       1.261400039128e+03       4.709707585489e-02       4.107504784475e-04       1.961439336950e+00       1.438719790525e-07       1.147032779122e-03      -1.053476733164e-06 
   38       1.280992899759e+03       5.153777007574e-02       4.332673019646e-04       1.916691338626e+00       1.436422212034e-07       1.120080558428e-03      -9.676493127463e-07 
   39       1.300842773491e+03       5.624482785026e-02       4.563960686170e-04       1.860295871415e+00       1.434053197296e-07       1.095200157028e-03      -8.599309336912e-07 
   40       1.320893547569e+03       6.122211608274e-02       4.801373219907e-04       1.792575695492e+00       1.431475989241e-07       1.071563939338e-03      -7.724753787682e-07 
   41       1.341071944165e+03       6.647347474923e-02       5.044915511040e-04       1.713859919434e+00       1.428205839600e-07       1.048099736507e-03      -7.478632571185e-07 
   42       1.361408881362e+03       7.200515180139e-02       5.294590776995e-04       1.623993601874e+00       1.424475503716e-07       1.024878965146e-03      -7.845184126520e-07 
   43       1.381949284651e+03       7.782408416055e-02       5.550401343355e-04       1.522682930827e+00       1.420547125405e-07       1.002226311380e-03      -8.624604317391e-07 
   44       1.402715922126e+03       8.393723950156e-02       5.812348937513e-04       1.409627020377e+00       1.416345668247e-07       9.803328756946e-04      -9.533877961539e-07 
   45       1.423715169296e+03       9.035087821743e-02       6.080434293253e-04       1.284513695264e+00       1.411585193885e-07       9.592791941769e-04      -1.027595227527e-06 
   46       1.444962006607e+03       9.706806564727e-02       6.354655849480e-04       1.147009038047e+00       1.406515032071e-07       9.391903289948e-04      -1.081106240158e-06 
   47       1.466458418285e+03       1.040904237196e-01       6.635010643716e-04       9.967620488345e-01       1.401425927427e-07       9.200985412875e-04      -1.118735352824e-06 
   48       1.488184002922e+03       1.114187716061e-01       6.921494630433e-04       8.334053445844e-01       1.396399573786e-07       9.018718903897e-04      -1.147348629927e-06 
   49       1.510094046790e+03       1.190530874376e-01       7.214102647893e-04       6.565534381431e-01       1.391245209005e-07       8.841875396944e-04      -1.176108977839e-06 
   50       1.532140349676e+03       1.269931235474e-01       7.512828358493e-04       4.658466856930e-01       1.385623586177e-07       8.666569913830e-04      -1.214406751184e-06 
   51       1.554344836560e+03       1.352405378997e-01       7.817664127616e-04       2.611011849056e-01       1.379679221457e-07       8.493308245873e-04      -1.264022965322e-06 
   52       1.576742596603e+03       1.437972750371e-01       8.128601054582e-04       4.219659016182e-02       1.373619942170e-07       8.323481100689e-04      -1.324259596655e-06 
   53       1.599360041312e+03       1.526649557669e-01       8.445628962682e-04      -1.909655816978e-01       1.367517903299e-07       8.157910649334e-04      -1.393946369304e-06 
   54       1.622214048562e+03       1.618448696310e-01       8.768736364776e-04      -4.384615232320e-01       1.361272370956e-07       7.996749926120e-04      -1.471385364226e-06 
   55       1.645314325584e+03       1.713378305427e-01       9.097911205312e-04      -7.003499778089e-01       1.354696251338e-07       7.839801617618e-04      -1.554453950173e-06 
   56       1.668673146305e+03       1.811437189484e-01       9.433143381063e-04      -9.766891530792e-01       1.347929165545e-07       7.687867302601e-04      -1.641097347906e-06 
   57       1.692296533654e+03       1.912618127396e-01       9.774422786334e-04      -1.267523259250e+00       1.341152401867e-07       7.541709095680e-04      -1.728916959491e-06 
   58       1.716180537877e+03       2.016909015405e-01       1.012173858733e-03      -1.572877389676e+00       1.334458005592e-07       7.401600927747e-04      -1.814981464992e-06 
   59       1.740310505964e+03       2.124292738467e-01       1.047507921803e-03      -1.892757298024e+00       1.327825894343e-07       7.267256766373e-04      -1.895780172269e-06 
   60       1.764660351092e+03       2.234747041644e-01       1.083443237596e-03      -2.227149175441e+00       1.321098884866e-07       7.137755754426e-04      -1.967174766379e-06 
   61       1.789203631702e+03       2.348242093222e-01       1.119978642640e-03      -2.576018456579e+00       1.314066279829e-07       7.011964209139e-04      -2.025272343434e-06 
   62       1.813951347481e+03       2.464732825870e-01       1.157113499227e-03      -2.939306428630e+00       1.306825698722e-07       6.890152725995e-04      -2.069508676188e-06 
   63       1.838921369308e+03       2.584164640323e-01       1.194847339178e-03      -3.316932462262e+00       1.299532347982e-07       6.772781037832e-04      -2.100507292350e-06 
   64       1.864127029416e+03       2.706475364101e-01       1.233179736079e-03      -3.708794666977e+00       1.292290435868e-07       6.660007230658e-04      -2.119279791612e-06 
   65       1.889576765545e+03       2.831595049657e-01       1.272110309339e-03      -4.114769637462e+00       1.285140567041e-07       6.551648158619e-04      -2.127263157151e-06 
   66       1.915273765086e+03       2.959445772523e-01       1.311638728236e-03      -4.534712199937e+00       1.278046078004e-07       6.447138324822e-04      -2.126358323654e-06 
   67       1.941215609227e+03       3.089941429461e-01       1.351764715976e-03      -4.968455158517e+00       1.270878279691e-07       6.345487228030e-04      -2.118970001872e-06 
   68       1.967398391500e+03       3.222994693974e-01       1.392488117071e-03      -5.415813960774e+00       1.263480277760e-07       6.245635851387e-04      -2.107555939144e-06 
   69       1.993830837916e+03       3.358539970607e-01       1.433809106289e-03      -5.876602359206e+00       1.255927100670e-07       6.147755419255e-04      -2.093018941428e-06 
   70       2.020522421817e+03       3.496514750547e-01       1.475728029520e-03      -6.350619482115e+00       1.248340618774e-07       6.052261436712e-04      -2.075902705438e-06 
   71       2.047478905536e+03       3.636852847336e-01       1.518245349761e-03      -6.837645069630e+00       1.240812240027e-07       5.959429947179e-04      -2.056847815647e-06 
   72       2.074702098981e+03       3.779484378068e-01       1.561361652791e-03      -7.337439345868e+00       1.233395879659e-07       5.869379746893e-04      -2.036597911276e-06 
   73       2.102189618213e+03       3.924335744593e-01       1.605077652839e-03      -7.849742891098e+00       1.226100393246e-07       5.782053962865e-04      -2.016006008016e-06 
   74       2.129934644032e+03       4.071329614719e-01       1.649394198264e-03      -8.374276513907e+00       1.218881457715e-07       5.697200994307e-04      -1.996040974478e-06 
   75       2.157925680554e+03       4.220384903413e-01       1.694312277220e-03      -8.910741123365e+00       1.211632884810e-07       5.614354817546e-04      -1.977794163368e-06 
   76       2.186151582925e+03       4.371414039412e-01       1.739832943942e-03      -9.458829259184e+00       1.204233618583e-07       5.533019748163e-04      -1.962294172888e-06 
   77       2.214618232583e+03       4.524314231166e-01       1.785957069534e-03      -1.001826239220e+01       1.196730671598e-07       5.453329944813e-04      -1.949876677334e-06 
   78       2.243334478324e+03       4.678974566645e-01       1.832685555832e-03      -1.058876022516e+01       1.189205044714e-07       5.375532358937e-04      -1.940655396658e-06 
   79       2.272307005731e+03       4.835278513377e-01       1.880019414738e-03      -1.117002974759e+01       1.181717296385e-07       5.299788016361e-04      -1.934694578064e-06 
   80       2.301540203796e+03       4.993103843983e-01       1.927959772267e-03      -1.176176534698e+01       1.174303450328e-07       5.226162416419e-04      -1.932003970039e-06 
   81       2.331036031552e+03       5.152322561714e-01       1.976507872592e-03      -1.236364892004e+01       1.166970624918e-07       5.154615624416e-04      -1.932533642279e-06 
   82       2.360793884703e+03       5.312800825989e-01       2.025665082086e-03      -1.297534998390e+01       1.159692377149e-07       5.084992057430e-04      -1.936168651494e-06 
   83       2.390810462253e+03       5.474398877932e-01       2.075432893370e-03      -1.359652578734e+01       1.152403753947e-07       5.017009963437e-04      -1.942723553109e-06 
   84       2.421081956854e+03       5.636975350581e-01       2.125812903505e-03      -1.422681595775e+01       1.145032474190e-07       4.950373614795e-04      -1.951946721855e-06 
   85       2.451611335206e+03       5.800401183632e-01       2.176806735569e-03      -1.486582517887e+01       1.137616708237e-07       4.885166594306e-04      -1.963547307695e-06 
   86       2.482402025679e+03       5.964547889665e-01       2.228416111431e-03      -1.551313783195e+01       1.130216185388e-07       4.821535990869e-04      -1.977164635954e-06 
   87       2.513455608975e+03       6.129283373812e-01       2.280642880008e-03      -1.616832322377e+01       1.122876750757e-07       4.759572511006e-04      -1.992353344650e-06 
   88       2.544771723811e+03       6.294471932979e-01       2.333489020873e-03      -1.683093560605e+01       1.115627874511e-07       4.699304921160e-04      -2.008577651761e-06 
   89       2.576347972603e+03       6.459974255080e-01       2.386956647863e-03      -1.750051419480e+01       1.108480007989e-07       4.640694330128e-04      -2.025205480271e-06 
   90       2.608179827150e+03       6.625647418264e-01       2.441048012691e-03      -1.817658318972e+01       1.101421783114e-07       4.583628311658e-04      -2.041502440992e-06 
   91       2.640260534315e+03       6.791344890143e-01       2.495765508556e-03      -1.885865179360e+01       1.094417051512e-07       4.527914867184e-04      -2.056625673174e-06 
   92       2.672581021712e+03       6.956916527023e-01       2.551111673752e-03      -1.954621423167e+01       1.087401759753e-07       4.473276228716e-04      -2.069617542878e-06 
   93       2.705132581079e+03       7.122211143421e-01       2.607089285004e-03      -2.023875930122e+01       1.080310316130e-07       4.419443510721e-04      -2.079622330750e-06 
   94       2.737915584920e+03       7.287084664371e-01       2.663701645674e-03      -2.093580062116e+01       1.073171419404e-07       4.366479426276e-04      -2.086606931614e-06 
   95       2.770931912566e+03       7.451393203504e-01       2.720952347781e-03      -2.163685098900e+01       1.066034617969e-07       4.314516337022e-04      -2.090790219507e-06 
   96       2.804182233859e+03       7.614990636057e-01       2.778845190910e-03      -2.234141340418e+01       1.058941840649e-07       4.263659000813e-04      -2.092436445831e-06 
   97       2.837665952963e+03       7.777728633382e-01       2.837384187057e-03      -2.304898121835e+01       1.051926054524e-07       4.213981912959e-04      -2.091857808536e-06 
   98       2.871381152178e+03       7.939456697456e-01       2.896573565471e-03      -2.375903828549e+01       1.045009846599e-07       4.165526576598e-04      -2.089417075633e-06 
   99       2.905324535751e+03       8.100022195393e-01       2.956417777496e-03      -2.447105911216e+01       1.038203927691e-07       4.118298702191e-04      -2.085530263040e-06 
  100       2.939491373689e+03       8.259270393955e-01       3.016921501409e-03      -2.518450900769e+01       1.031505556902e-07       4.072265336145e-04      -2.080669366753e-06 
  101       2.973875445573e+03       8.417044494059e-01       3.078089647267e-03      -2.589884423442e+01       1.024896885039e-07       4.027351918564e-04      -2.075365149356e-06 
  102       3.008468984367e+03       8.573185665295e-01       3.139927361746e-03      -2.661351215782e+01       1.018343215360e-07       3.983439270118e-04      -2.070209980853e-06 
  103       3.043262620232e+03       8.727533080429e-01       3.202440032984e-03      -2.732795139681e+01       1.011791180012e-07       3.940360508051e-04      -2.065860733834e-06 
  104       3.078247299515e+03       8.879927811436e-01       3.265633114017e-03      -2.804159595681e+01       1.005188498573e-07       3.897956787961e-04      -2.062900787657e-06 
  105       3.113420457967e+03       9.030225042634e-01       3.329511555513e-03      -2.875388794165e+01       9.985537163662e-08       3.856264424710e-04      -2.061387514598e-06 
  106       3.148780580569e+03       9.178283579384e-01       3.394080305080e-03      -2.946426684691e+01       9.919215488637e-08       3.815359687109e-04      -2.061218869974e-06 
  107       3.184325266755e+03       9.323962209916e-01       3.459344484639e-03      -3.017216592195e+01       9.853221322590e-08       3.775301829994e-04      -2.062264775579e-06 
