# total [l(l+1)/2pi] C_l's (units: [microK]^2)
# for l=2 to 3000, i.e. number of multipoles equal to 2999
#
# -> if you don't want to see such a header, set 'headers' to 'no' in input file
# -> for CMB lensing (d), these are C_l^dd for the deflection field.
#    Remember the conversion factors:
#    C_l^dd (deflection) = l(l+1) C_l^phi-phi
#    C_l^gg (shear/convergence) = 1/4 (l(l+1))^2 C_l^phi-phi
#
# 1:l     2:TT                     3:EE                     4:BB                     5:TE                     6:dd                     7:dT                     8:dE                 
    2       1.156079675915e+03       3.965373259780e-02       0.000000000000e+00       3.017178174819e+00       5.143217976723e-08       3.476144455236e-03      -1.439088537145e-05 
    3       1.082036225921e+03       5.009303883474e-02       0.000000000000e+00       3.403789337188e+00       6.337323500186e-08       3.466775621549e-03      -1.528270705244e-05 
    4       1.015251584229e+03       4.258868041097e-02       0.000000000000e+00       3.177020103276e+00       7.337337866859e-08       3.376371496342e-03      -1.275166127561e-05 
    5       9.655694864282e+02       2.787421776131e-02       0.000000000000e+00       2.691573391661e+00       8.207715619947e-08       3.256852931213e-03      -8.501121231224e-06 
    6       9.312097492840e+02       1.529836801100e-02       0.000000000000e+00       2.149851568572e+00       8.971310144305e-08       3.127839804284e-03      -3.941056035807e-06 
    7       9.084295338412e+02       8.178917732205e-03       0.000000000000e+00       1.669083871502e+00       9.646597074012e-08       2.998884738738e-03      -1.375487554836e-07 
    8       8.944637577289e+02       5.282626571511e-03       0.000000000000e+00       1.300427542621e+00       1.024798284242e-07       2.875234249384e-03       2.297857285863e-06 
    9       8.870058244760e+02       4.226997664836e-03       0.000000000000e+00       1.054420866169e+00       1.078515598006e-07       2.759550187676e-03       3.216621213170e-06 
   10       8.841312756093e+02       3.554756553834e-03       0.000000000000e+00       9.184219100280e-01       1.126427452907e-07       2.652158445899e-03       2.856581896926e-06 
   11       8.850987236036e+02       2.947384050784e-03       0.000000000000e+00       8.680212881887e-01       1.141741423143e-07       2.564033227380e-03       1.710937264013e-06 
   12       8.887795246221e+02       2.551313831767e-03       0.000000000000e+00       8.756564772445e-01       1.178769323240e-07       2.463184514134e-03       2.993242078160e-07 
   13       8.946398982777e+02       2.434581666812e-03       0.000000000000e+00       9.170960643980e-01       1.211885851511e-07       2.375210865858e-03      -8.993368632018e-07 
   14       9.021352497804e+02       2.503603373207e-03       0.000000000000e+00       9.744447598902e-01       1.241523751083e-07       2.284021699838e-03      -1.622446988012e-06 
   15       9.112266310695e+02       2.658690720055e-03       0.000000000000e+00       1.036805740271e+00       1.268045949485e-07       2.201585572185e-03      -1.781793100784e-06 
   16       9.214478644597e+02       2.895251927197e-03       0.000000000000e+00       1.099305677591e+00       1.291779570684e-07       2.124400597610e-03      -1.485141289406e-06 
   17       9.327431734246e+02       3.269540673747e-03       0.000000000000e+00       1.161581538678e+00       1.312999925169e-07       2.050966687652e-03      -9.479621925692e-07 
   18       9.447308392429e+02       3.823071622018e-03       0.000000000000e+00       1.225556714347e+00       1.331429366205e-07       1.980621646658e-03      -4.193741331281e-07 
   19       9.574953953839e+02       4.553969003278e-03       0.000000000000e+00       1.293306407291e+00       1.348814301960e-07       1.915436420520e-03      -5.308261084490e-08 
   20       9.708807665407e+02       5.441101661735e-03       0.000000000000e+00       1.366527965236e+00       1.363719003775e-07       1.853863077249e-03       3.643266125909e-08 
   21       9.849326477271e+02       6.477977228833e-03       0.000000000000e+00       1.444834523217e+00       1.377050500335e-07       1.795943012558e-03      -1.357706371287e-07 
   22       9.995073217562e+02       7.659932350310e-03       0.000000000000e+00       1.526363937692e+00       1.388549494232e-07       1.739603561243e-03      -4.636544893833e-07 
   23       1.014592423321e+03       8.985406910386e-03       0.000000000000e+00       1.607735521191e+00       1.398943292775e-07       1.685439810439e-03      -8.367166695990e-07 
   24       1.030062061520e+03       1.045258040068e-02       0.000000000000e+00       1.684757748816e+00       1.407734238031e-07       1.633440398665e-03      -1.124579189150e-06 
   25       1.045995907245e+03       1.206242968656e-02       0.000000000000e+00       1.755049430983e+00       1.415487425646e-07       1.584682768484e-03      -1.264409190068e-06 
   26       1.062393875835e+03       1.381912417618e-02       0.000000000000e+00       1.816889133307e+00       1.421979648014e-07       1.539244031993e-03      -1.231182338022e-06 
   27       1.079150138360e+03       1.574106587586e-02       0.000000000000e+00       1.869735754292e+00       1.427490016310e-07       1.496354197024e-03      -1.072242626866e-06 
   28       1.096064450570e+03       1.785094196197e-02       0.000000000000e+00       1.913673087134e+00       1.431644250921e-07       1.454165065713e-03      -8.745851608481e-07 
   29       1.113213998302e+03       2.016091628845e-02       0.000000000000e+00       1.949415219492e+00       1.435199484376e-07       1.413400079692e-03      -6.907465989602e-07 
   30       1.130680821472e+03       2.267973545656e-02       0.000000000000e+00       1.978198558099e+00       1.438368103792e-07       1.374994686762e-03      -5.732205831642e-07 
   31       1.148463152984e+03       2.541530301824e-02       0.000000000000e+00       2.001236573691e+00       1.440323614191e-07       1.339058119870e-03      -5.737115526143e-07 
   32       1.166579332715e+03       2.837342265598e-02       0.000000000000e+00       2.017918112527e+00       1.441529053731e-07       1.305439568944e-03      -6.765095791828e-07 
   33       1.184981169141e+03       3.155842233977e-02       0.000000000000e+00       2.026917110164e+00       1.442277443534e-07       1.273068545581e-03      -8.278036849896e-07 
   34       1.203568322324e+03       3.497443457863e-02       0.000000000000e+00       2.026803234307e+00       1.442193070347e-07       1.240313019923e-03      -9.617889922241e-07 
   35       1.222373391608e+03       3.862907622471e-02       0.000000000000e+00       2.016624677625e+00       1.441604985932e-07       1.207702548203e-03      -1.052988020949e-06 
   36       1.241428125154e+03       4.253101475359e-02       0.000000000000e+00       1.995512564099e+00       1.440583763227e-07       1.176329165740e-03      -1.086992259050e-06 
   37       1.260726549278e+03       4.668843521396e-02       0.000000000000e+00       1.962689556344e+00       1.438726314986e-07       1.147036787633e-03      -1.053482239016e-06 
   38       1.280288189505e+03       5.110709714064e-02       0.000000000000e+00       1.918045423102e+00       1.436428711930e-07       1.120084303097e-03      -9.676544024641e-07 
   39       1.300106396227e+03       5.579158623812e-02       0.000000000000e+00       1.861757852223e+00       1.434059673560e-07       1.095203601444e-03      -8.599354768079e-07 
   40       1.320125082563e+03       6.074577603751e-02       0.000000000000e+00       1.794149362402e+00       1.431482441089e-07       1.071567134462e-03      -7.724794538819e-07 
   41       1.340270997873e+03       6.597351356352e-02       0.000000000000e+00       1.715548774843e+00       1.428212262722e-07       1.048102818491e-03      -7.478671555980e-07 
   42       1.360575087320e+03       7.148105438301e-02       0.000000000000e+00       1.625800798298e+00       1.424481894790e-07       1.024882053496e-03      -7.845224234084e-07 
   43       1.381082304543e+03       7.727534350976e-02       0.000000000000e+00       1.524611216582e+00       1.420553482731e-07       1.002229463945e-03      -8.624647528501e-07 
   44       1.401815447342e+03       8.336335715876e-02       0.000000000000e+00       1.411678687124e+00       1.416351990384e-07       9.803360656045e-04      -9.533924963219e-07 
   45       1.422780919576e+03       8.975136487818e-02       0.000000000000e+00       1.286690528190e+00       1.411591478721e-07       9.592823085849e-04      -1.027600239231e-06 
   46       1.443993718660e+03       9.644244232068e-02       0.000000000000e+00       1.149312279861e+00       1.406521278694e-07       9.391932522361e-04      -1.081111477310e-06 
   47       1.465455841588e+03       1.034382225192e-01       0.000000000000e+00       9.991923505095e-01       1.401432136046e-07       9.201011860512e-04      -1.118740750584e-06 
   48       1.487146898196e+03       1.107395364119e-01       0.000000000000e+00       8.359627099356e-01       1.396405744623e-07       9.018742084970e-04      -1.147354153494e-06 
   49       1.509022184388e+03       1.183463745750e-01       0.000000000000e+00       6.592371665813e-01       1.391251340868e-07       8.841895341210e-04      -1.176114632286e-06 
   50       1.531033508963e+03       1.262585026528e-01       0.000000000000e+00       4.686553252780e-01       1.385629675761e-07       8.666587165854e-04      -1.214412583291e-06 
   51       1.553202808766e+03       1.344775933635e-01       0.000000000000e+00       2.640325238368e-01       1.379685266174e-07       8.493323429002e-04      -1.264029034860e-06 
   52       1.575565185001e+03       1.430056070551e-01       0.000000000000e+00       4.524761710693e-02       1.373625940703e-07       8.323494766230e-04      -1.324265967828e-06 
   53       1.598147060378e+03       1.518441812611e-01       0.000000000000e+00      -1.877987297148e-01       1.367523855103e-07       8.157923236360e-04      -1.393953110130e-06 
   54       1.620965323104e+03       1.609946231955e-01       0.000000000000e+00      -4.351836141996e-01       1.361278275609e-07       7.996761716591e-04      -1.471392545808e-06 
   55       1.644029690209e+03       1.704577652473e-01       0.000000000000e+00      -6.969667185811e-01       1.354702108148e-07       7.839812725746e-04      -1.554461642196e-06 
   56       1.667352446089e+03       1.802335066186e-01       0.000000000000e+00      -9.732071561264e-01       1.347934974508e-07       7.687877793735e-04      -1.641105601445e-06 
   57       1.690939623854e+03       1.903211446739e-01       0.000000000000e+00      -1.263950062043e+00       1.341158163635e-07       7.541719014813e-04      -1.728925797637e-06 
   58       1.714787283276e+03       2.007194894014e-01       0.000000000000e+00      -1.569221493816e+00       1.334463720962e-07       7.401610292270e-04      -1.814990876172e-06 
   59       1.738880780202e+03       2.114268505705e-01       0.000000000000e+00      -1.889028208823e+00       1.327831563624e-07       7.267265558091e-04      -1.895790102966e-06 
   60       1.763194035974e+03       2.224410248887e-01       0.000000000000e+00      -2.223357441945e+00       1.321104507112e-07       7.137763910810e-04      -1.967185113232e-06 
   61       1.787700619770e+03       2.337590514430e-01       0.000000000000e+00      -2.572175692108e+00       1.314071852593e-07       7.011971625396e-04      -2.025282957535e-06 
   62       1.812411555267e+03       2.453764429297e-01       0.000000000000e+00      -2.935425266732e+00       1.306831219980e-07       6.890159295778e-04      -2.069519410319e-06 
   63       1.837344742278e+03       2.572877582906e-01       0.000000000000e+00      -3.313026563486e+00       1.299537816586e-07       6.772786666821e-04      -2.100518018503e-06 
   64       1.862513543941e+03       2.694867994083e-01       0.000000000000e+00      -3.704878744113e+00       1.292295851382e-07       6.660011839885e-04      -2.119290407436e-06 
   65       1.887926430950e+03       2.819665909106e-01       0.000000000000e+00      -4.110859480593e+00       1.285145929524e-07       6.551651688067e-04      -2.127273592981e-06 
   66       1.913586625790e+03       2.947193599766e-01       0.000000000000e+00      -4.530824701315e+00       1.278051387744e-07       6.447140737304e-04      -2.126368550139e-06 
   67       1.939491746971e+03       3.077365161409e-01       0.000000000000e+00      -4.964608337240e+00       1.270883536878e-07       6.345488513364e-04      -2.118980038219e-06 
   68       1.965637927199e+03       3.210093457052e-01       0.000000000000e+00      -5.412026985052e+00       1.263485482363e-07       6.245636026382e-04      -2.107565850767e-06 
   69       1.992033932116e+03       3.345313035021e-01       0.000000000000e+00      -5.872895561204e+00       1.255932253158e-07       6.147754512953e-04      -2.093028800572e-06 
   70       2.018689276419e+03       3.482961513576e-01       0.000000000000e+00      -6.347014378370e+00       1.248345720213e-07       6.052259486461e-04      -2.075912578785e-06 
   71       2.045609766029e+03       3.622972826888e-01       0.000000000000e+00      -6.834164383332e+00       1.240817291918e-07       5.959426998776e-04      -2.056857762000e-06 
   72       2.072797256746e+03       3.765277205850e-01       0.000000000000e+00      -7.334107028902e+00       1.233400883732e-07       5.869375854697e-04      -2.036607979045e-06 
   73       2.100249412908e+03       3.909801158899e-01       0.000000000000e+00      -7.846584145838e+00       1.226105351222e-07       5.782049189877e-04      -2.016016232495e-06 
   74       2.127959466045e+03       4.056467452824e-01       0.000000000000e+00      -8.371317814774e+00       1.218886371023e-07       5.697195412219e-04      -1.996051374910e-06 
   75       2.155915973537e+03       4.205195093587e-01       0.000000000000e+00      -8.908010238131e+00       1.211637754259e-07       5.614348506755e-04      -1.977804739791e-06 
   76       2.184107841169e+03       4.355896592995e-01       0.000000000000e+00      -9.456355265942e+00       1.204238444280e-07       5.533012795753e-04      -1.962304906887e-06 
   77       2.212540981684e+03       4.508469235695e-01       0.000000000000e+00      -1.001607568291e+01       1.196735453822e-07       5.453322435888e-04      -1.949887546265e-06 
   78       2.241224269641e+03       4.662802177420e-01       0.000000000000e+00      -1.058689251972e+01       1.189209784086e-07       5.375524372728e-04      -1.940666377657e-06 
   79       2.270164415757e+03       4.818778944226e-01       0.000000000000e+00      -1.116851411144e+01       1.181721993767e-07       5.299779624005e-04      -1.934705648260e-06 
   80       2.299365833509e+03       4.976277357642e-01       0.000000000000e+00      -1.176063620844e+01       1.174308106688e-07       5.226153678574e-04      -1.932015106782e-06 
   81       2.328830505726e+03       5.135169459842e-01       0.000000000000e+00      -1.236294208727e+01       1.166975241186e-07       5.154606588693e-04      -1.932544823385e-06 
   82       2.358557851189e+03       5.295321438793e-01       0.000000000000e+00      -1.297510266154e+01       1.159696954042e-07       5.084982755641e-04      -1.936179855514e-06 
   83       2.388544591226e+03       5.456593553422e-01       0.000000000000e+00      -1.359677659284e+01       1.152408291776e-07       5.017000408668e-04      -1.942734759611e-06 
   84       2.418786941022e+03       5.618844449627e-01       0.000000000000e+00      -1.422760489823e+01       1.145036972823e-07       4.950363802943e-04      -1.951957912004e-06 
   85       2.449287893153e+03       5.781945094341e-01       0.000000000000e+00      -1.486719350284e+01       1.137621167687e-07       4.885156520766e-04      -1.963558465750e-06 
   86       2.480050902532e+03       5.945767024968e-01       0.000000000000e+00      -1.551512798468e+01       1.130220605929e-07       4.821525655472e-04      -1.977175750111e-06 
   87       2.511077576114e+03       6.110178162876e-01       0.000000000000e+00      -1.617097883908e+01       1.122881132868e-07       4.759561918657e-04      -1.992364407662e-06 
   88       2.542367578562e+03       6.275042812360e-01       0.000000000000e+00      -1.683430149702e+01       1.115632218802e-07       4.699294082506e-04      -2.008588661597e-06 
   89       2.573918537916e+03       6.440221659594e-01       0.000000000000e+00      -1.750463634353e+01       1.108484315118e-07       4.640683262274e-04      -2.025216440808e-06 
   90       2.605725951260e+03       6.605571771586e-01       0.000000000000e+00      -1.818150873614e+01       1.101426053693e-07       4.583617038911e-04      -2.041513362751e-06 
   91       2.637783090389e+03       6.770946595133e-01       0.000000000000e+00      -1.886442902323e+01       1.094421286001e-07       4.527903421845e-04      -2.056636574087e-06 
   92       2.670080907479e+03       6.936195955780e-01       0.000000000000e+00      -1.955289256246e+01       1.087405958335e-07       4.473264651909e-04      -2.069628449098e-06 
   93       2.702610722614e+03       7.101168605302e-01       0.000000000000e+00      -2.024638922915e+01       1.080314478704e-07       4.419431850815e-04      -2.079633275264e-06 
   94       2.735372953657e+03       7.265720304722e-01       0.000000000000e+00      -2.094443353737e+01       1.073175545987e-07       4.366467729369e-04      -2.086617945592e-06 
   95       2.768369531051e+03       7.429706960706e-01       0.000000000000e+00      -2.164653910414e+01       1.066038708785e-07       4.314504643659e-04      -2.090801329354e-06 
   96       2.801601177549e+03       7.592982218833e-01       0.000000000000e+00      -2.235220970983e+01       1.058945896092e-07       4.263647344933e-04      -2.092447672290e-06 
   97       2.835067352071e+03       7.755397497539e-01       0.000000000000e+00      -2.306093944674e+01       1.051930075118e-07       4.213970320789e-04      -2.091869165734e-06 
   98       2.868766193559e+03       7.916802022052e-01       0.000000000000e+00      -2.377221286785e+01       1.045013832952e-07       4.165515065478e-04      -2.089428570074e-06 
   99       2.902694464824e+03       8.077042858329e-01       0.000000000000e+00      -2.448550513541e+01       1.038207880440e-07       4.118287279341e-04      -2.085541892539e-06 
  100       2.936847496406e+03       8.235964946999e-01       0.000000000000e+00      -2.520028216969e+01       1.031509476652e-07       4.072253997366e-04      -2.080681119325e-06 
  101       2.971219130427e+03       8.393411137301e-01       0.000000000000e+00      -2.591600079757e+01       1.024900772297e-07       4.027340646871e-04      -2.075377002032e-06 
  102       3.005801664444e+03       8.549222221017e-01       0.000000000000e+00      -2.663210890127e+01       1.018347070461e-07       3.983428034312e-04      -2.070221898448e-06 
  103       3.040585795300e+03       8.703236966420e-01       0.000000000000e+00      -2.734804556696e+01       1.011795003030e-07       3.940349261217e-04      -2.065872667656e-06 
  104       3.075562532263e+03       8.855296008380e-01       0.000000000000e+00      -2.806324522870e+01       1.005192289338e-07       3.897945469710e-04      -2.062912677554e-06 
  105       3.110729351688e+03       9.005254044095e-01       0.000000000000e+00      -2.877715041736e+01       9.985574747971e-08       3.856252975656e-04      -2.061399301957e-06 
  106       3.146084772952e+03       9.152969355768e-01       0.000000000000e+00      -2.948920101904e+01       9.919252750520e-08       3.815348053458e-04      -2.061230501877e-06 
  107       3.181626429335e+03       9.298300176944e-01       0.000000000000e+00      -3.019883062392e+01       9.853258264541e-08       3.775289964582e-04      -2.062276205781e-06 
