# total [l(l+1)/2pi] C_l's (units: [microK]^2)
# for l=2 to 3000, i.e. number of multipoles equal to 2999
#
# -> if you don't want to see such a header, set 'headers' to 'no' in input file
# -> for CMB lensing (d), these are C_l^dd for the deflection field.
#    Remember the conversion factors:
#    C_l^dd (deflection) = l(l+1) C_l^phi-phi
#    C_l^gg (shear/convergence) = 1/4 (l(l+1))^2 C_l^phi-phi
#
# 1:l     2:TT                     3:EE                     4:BB                     5:TE                     6:dd                     7:dT                     8:dE                 
    2       1.156073763421e+03       3.965352950916e-02       0.000000000000e+00       3.017162722536e+00       5.143192294416e-08       3.476126864172e-03      -1.439081166776e-05 
    3       1.082030694417e+03       5.009278228078e-02       0.000000000000e+00       3.403771904887e+00       6.337292086029e-08       3.466758158858e-03      -1.528262878144e-05 
    4       1.015246392139e+03       4.258846229102e-02       0.000000000000e+00       3.177003832404e+00       7.337301876605e-08       3.376354599677e-03      -1.275159596739e-05 
    5       9.655645503315e+02       2.787407500226e-02       0.000000000000e+00       2.691559607116e+00       8.207675666579e-08       3.256836750662e-03      -8.501077691524e-06 
    6       9.312049988511e+02       1.529828965983e-02       0.000000000000e+00       2.149840558357e+00       8.971266588123e-08       3.127824394655e-03      -3.941035851163e-06 
    7       9.084248977133e+02       8.178875843676e-03       0.000000000000e+00       1.669075323260e+00       9.646550324937e-08       2.998870032491e-03      -1.375480528685e-07 
    8       8.944591855934e+02       5.282599516480e-03       0.000000000000e+00       1.300420882583e+00       1.024793324531e-07       2.875220212835e-03       2.297845516246e-06 
    9       8.870012893022e+02       4.226976016262e-03       0.000000000000e+00       1.054415466752e+00       1.078510382041e-07       2.759536833030e-03       3.216604742634e-06 
   10       8.841267730542e+02       3.554738348200e-03       0.000000000000e+00       9.184172069861e-01       1.126422052357e-07       2.652145778733e-03       2.856567269864e-06 
   11       8.850942201395e+02       2.947368955883e-03       0.000000000000e+00       8.680168417372e-01       1.141735894616e-07       2.564020898928e-03       1.710928495491e-06 
   12       8.887749890095e+02       2.551300765426e-03       0.000000000000e+00       8.756519915527e-01       1.178763628900e-07       2.463172682689e-03       2.993226671462e-07 
   13       8.946353206856e+02       2.434569198409e-03       0.000000000000e+00       9.170913693605e-01       1.211880013814e-07       2.375199496344e-03      -8.993322501291e-07 
   14       9.021306597254e+02       2.503590551432e-03       0.000000000000e+00       9.744397719638e-01       1.241517787387e-07       2.284010918509e-03      -1.622438662612e-06 
   15       9.112220014494e+02       2.658677104132e-03       0.000000000000e+00       1.036800429339e+00       1.268039870583e-07       2.201575335811e-03      -1.781783980191e-06 
   16       9.214431791537e+02       2.895237099905e-03       0.000000000000e+00       1.099300043929e+00       1.291773389893e-07       2.124390755987e-03      -1.485133703004e-06 
   17       9.327383992716e+02       3.269523929735e-03       0.000000000000e+00       1.161575589563e+00       1.312993657696e-07       2.050957172692e-03      -9.479573406558e-07 
   18       9.447260103863e+02       3.823052043332e-03       0.000000000000e+00       1.225550441031e+00       1.331423028563e-07       1.980612579294e-03      -4.193719692983e-07 
   19       9.574905295228e+02       4.553945681582e-03       0.000000000000e+00       1.293299786445e+00       1.348807901027e-07       1.915427873024e-03      -5.308232257262e-08 
   20       9.708758310193e+02       5.441073796919e-03       0.000000000000e+00       1.366520963892e+00       1.363712551112e-07       1.853854971676e-03       3.643246418252e-08 
   21       9.849276223618e+02       6.477944054037e-03       0.000000000000e+00       1.444827117648e+00       1.377044003969e-07       1.795935219268e-03      -1.357699712462e-07 
   22       9.995022197584e+02       7.659893122559e-03       0.000000000000e+00       1.526356121614e+00       1.388542965782e-07       1.739595976557e-03      -4.636521085940e-07 
   23       1.014587254143e+03       8.985360894698e-03       0.000000000000e+00       1.607727295340e+00       1.398936737716e-07       1.685432457496e-03      -8.367123392675e-07 
   24       1.030056819906e+03       1.045252687140e-02       0.000000000000e+00       1.684749121792e+00       1.407727659375e-07       1.633433460459e-03      -1.124573424185e-06 
   25       1.045990586171e+03       1.206236791307e-02       0.000000000000e+00       1.755040434465e+00       1.415480825581e-07       1.584676312610e-03      -1.264402769624e-06 
   26       1.062388471141e+03       1.381905340651e-02       0.000000000000e+00       1.816879824357e+00       1.421973035033e-07       1.539237911335e-03      -1.231176065489e-06 
   27       1.079144646237e+03       1.574098526372e-02       0.000000000000e+00       1.869726186591e+00       1.427483396763e-07       1.496348267867e-03      -1.072237101028e-06 
   28       1.096058867813e+03       1.785085054483e-02       0.000000000000e+00       1.913663301199e+00       1.431637629434e-07       1.454159280223e-03      -8.745806246458e-07 
   29       1.113208324560e+03       2.016081304157e-02       0.000000000000e+00       1.949405250490e+00       1.435192861137e-07       1.413394440668e-03      -6.907430325570e-07 
   30       1.130675061200e+03       2.267961931055e-02       0.000000000000e+00       1.978188436997e+00       1.438361478545e-07       1.374989249122e-03      -5.732176669270e-07 
   31       1.148457314742e+03       2.541517286340e-02       0.000000000000e+00       2.001226328006e+00       1.440316991755e-07       1.339052989373e-03      -5.737086644938e-07 
   32       1.166573419359e+03       2.837327735271e-02       0.000000000000e+00       2.017907775520e+00       1.441522437604e-07       1.305434802667e-03      -6.765061699859e-07 
   33       1.184975173610e+03       3.155826072607e-02       0.000000000000e+00       2.026906724937e+00       1.442270836942e-07       1.273064096973e-03      -8.277994849836e-07 
   34       1.203562228663e+03       3.497425547108e-02       0.000000000000e+00       2.026792853977e+00       1.442186479502e-07       1.240308739773e-03      -9.617840749954e-07 
   35       1.222367186470e+03       3.862887840102e-02       0.000000000000e+00       2.016614358926e+00       1.441598414979e-07       1.207698324158e-03      -1.052982596214e-06 
   36       1.241421802660e+03       4.253079694737e-02       0.000000000000e+00       1.995502365294e+00       1.440577214394e-07       1.176324993774e-03      -1.086986617568e-06 
   37       1.260720111528e+03       4.668819611719e-02       0.000000000000e+00       1.962679536387e+00       1.438719790525e-07       1.147032779122e-03      -1.053476733164e-06 
   38       1.280281640999e+03       5.110683541586e-02       0.000000000000e+00       1.918035639231e+00       1.436422212034e-07       1.120080558428e-03      -9.676493127463e-07 
   39       1.300099742500e+03       5.579130052435e-02       0.000000000000e+00       1.861748358515e+00       1.434053197296e-07       1.095200157028e-03      -8.599309336912e-07 
   40       1.320118330466e+03       6.074546495390e-02       0.000000000000e+00       1.794140208670e+00       1.431475989241e-07       1.071563939338e-03      -7.724753787682e-07 
   41       1.340264154973e+03       6.597317570945e-02       0.000000000000e+00       1.715540007382e+00       1.428205839600e-07       1.048099736507e-03      -7.478632571185e-07 
   42       1.360568158251e+03       7.148068832566e-02       0.000000000000e+00       1.625792467068e+00       1.424475503716e-07       1.024878965146e-03      -7.845184126520e-07 
   43       1.381075289444e+03       7.727494778055e-02       0.000000000000e+00       1.524603377950e+00       1.420547125405e-07       1.002226311380e-03      -8.624604317391e-07 
   44       1.401808341090e+03       8.336293025312e-02       0.000000000000e+00       1.411671404927e+00       1.416345668247e-07       9.803328756946e-04      -9.533877961539e-07 
   45       1.422773712468e+03       8.975090525925e-02       0.000000000000e+00       1.286683873406e+00       1.411585193885e-07       9.592791941769e-04      -1.027595227527e-06 
   46       1.443986402074e+03       9.644194843591e-02       0.000000000000e+00       1.149306325433e+00       1.406515032071e-07       9.391903289948e-04      -1.081106240158e-06 
   47       1.465448410088e+03       1.034376928079e-01       0.000000000000e+00       9.991871696795e-01       1.401425927427e-07       9.200985412875e-04      -1.118735352824e-06 
   48       1.487139350318e+03       1.107389693094e-01       0.000000000000e+00       8.359583759069e-01       1.396399573786e-07       9.018718903897e-04      -1.147348629927e-06 
   49       1.509014523472e+03       1.183457685170e-01       0.000000000000e+00       6.592337521609e-01       1.391245209005e-07       8.841875396944e-04      -1.176108977839e-06 
   50       1.531025742467e+03       1.262578560763e-01       0.000000000000e+00       4.686529027142e-01       1.385623586177e-07       8.666569913830e-04      -1.214406751184e-06 
   51       1.553194942437e+03       1.344769046972e-01       0.000000000000e+00       2.640311653379e-01       1.379679221457e-07       8.493308245873e-04      -1.264022965322e-06 
   52       1.575557220873e+03       1.430048747175e-01       0.000000000000e+00       4.524739483595e-02       1.373619942170e-07       8.323481100689e-04      -1.324259596655e-06 
   53       1.598138996189e+03       1.518434036622e-01       0.000000000000e+00      -1.877977438467e-01       1.367517903299e-07       8.157910649334e-04      -1.393946369304e-06 
   54       1.620957151683e+03       1.609937987386e-01       0.000000000000e+00      -4.351813487455e-01       1.361272370956e-07       7.996749926120e-04      -1.471385364226e-06 
   55       1.644021400102e+03       1.704568923315e-01       0.000000000000e+00      -6.969631025137e-01       1.354696251338e-07       7.839801617618e-04      -1.554453950173e-06 
   56       1.667344026306e+03       1.802325836431e-01       0.000000000000e+00      -9.732021179344e-01       1.347929165545e-07       7.687867302601e-04      -1.641097347906e-06 
   57       1.690931065474e+03       1.903201700416e-01       0.000000000000e+00      -1.263943529484e+00       1.341152401867e-07       7.541709095680e-04      -1.728916959491e-06 
   58       1.714778579896e+03       2.007184615212e-01       0.000000000000e+00      -1.569213393913e+00       1.334458005592e-07       7.401600927747e-04      -1.814981464992e-06 
   59       1.738871928413e+03       2.114257678596e-01       0.000000000000e+00      -1.889018467850e+00       1.327825894343e-07       7.267256766373e-04      -1.895780172269e-06 
   60       1.763185035860e+03       2.224398857757e-01       0.000000000000e+00      -2.223345985416e+00       1.321098884866e-07       7.137755754426e-04      -1.967174766379e-06 
   61       1.787691474740e+03       2.337578543715e-01       0.000000000000e+00      -2.572162444974e+00       1.314066279829e-07       7.011964209139e-04      -2.025272343434e-06 
   62       1.812402269672e+03       2.453751863663e-01       0.000000000000e+00      -2.935410154256e+00       1.306825698722e-07       6.890152725995e-04      -2.069508676188e-06 
   63       1.837335320783e+03       2.572864407301e-01       0.000000000000e+00      -3.313009511590e+00       1.299532347982e-07       6.772781037832e-04      -2.100507292350e-06 
   64       1.862503991542e+03       2.694854193774e-01       0.000000000000e+00      -3.704859679519e+00       1.292290435868e-07       6.660007230658e-04      -2.119279791612e-06 
   65       1.887916752991e+03       2.819651469724e-01       0.000000000000e+00      -4.110838330979e+00       1.285140567041e-07       6.551648158619e-04      -2.127263157151e-06 
   66       1.913576827986e+03       2.947178507340e-01       0.000000000000e+00      -4.530801395464e+00       1.278046078004e-07       6.447138324822e-04      -2.126358323654e-06 
   67       1.939481835422e+03       3.077349402414e-01       0.000000000000e+00      -4.964582805197e+00       1.270878279691e-07       6.345487228030e-04      -2.118970001872e-06 
   68       1.965627908035e+03       3.210077018412e-01       0.000000000000e+00      -5.411999158063e+00       1.263480277760e-07       6.245635851387e-04      -2.107555939144e-06 
   69       1.992023809922e+03       3.345295903996e-01       0.000000000000e+00      -5.872865370952e+00       1.255927100670e-07       6.147755419255e-04      -2.093018941428e-06 
   70       2.018679053633e+03       3.482943677743e-01       0.000000000000e+00      -6.346981756776e+00       1.248340618774e-07       6.052261436712e-04      -2.075902705438e-06 
   71       2.045599442682e+03       3.622954274159e-01       0.000000000000e+00      -6.834129262561e+00       1.240812240027e-07       5.959429947179e-04      -2.056847815647e-06 
   72       2.072786830200e+03       3.765257924494e-01       0.000000000000e+00      -7.334069341364e+00       1.233395879659e-07       5.869379746893e-04      -2.036597911276e-06 
   73       2.100238877577e+03       3.909781137557e-01       0.000000000000e+00      -7.846543824191e+00       1.226100393246e-07       5.782053962865e-04      -2.016006008016e-06 
   74       2.127948813113e+03       4.056446680530e-01       0.000000000000e+00      -8.371274791914e+00       1.218881457715e-07       5.697200994307e-04      -1.996040974478e-06 
   75       2.155905190665e+03       4.205173559787e-01       0.000000000000e+00      -8.907964447193e+00       1.211632884810e-07       5.614354817546e-04      -1.977794163368e-06 
   76       2.184096913161e+03       4.355874287579e-01       0.000000000000e+00      -9.456306640793e+00       1.204233618583e-07       5.533019748163e-04      -1.962294172888e-06 
   77       2.212529894242e+03       4.508446149082e-01       0.000000000000e+00      -1.001602416027e+01       1.196730671598e-07       5.453329944813e-04      -1.949876677334e-06 
   78       2.241213010577e+03       4.662778300599e-01       0.000000000000e+00      -1.058683803996e+01       1.189205044714e-07       5.375532358937e-04      -1.940655396658e-06 
   79       2.270152975305e+03       4.818754268783e-01       0.000000000000e+00      -1.116845661889e+01       1.181717296385e-07       5.299788016361e-04      -1.934694578064e-06 
   80       2.299354204644e+03       4.976251875794e-01       0.000000000000e+00      -1.176057565173e+01       1.174303450328e-07       5.226162416419e-04      -1.932003970039e-06 
   81       2.328818684497e+03       5.135143164463e-01       0.000000000000e+00      -1.236287841962e+01       1.166970624918e-07       5.154615624416e-04      -1.932533642279e-06 
   82       2.358545837060e+03       5.295294323446e-01       0.000000000000e+00      -1.297503584116e+01       1.159692377149e-07       5.084992057430e-04      -1.936168651494e-06 
   83       2.388532387430e+03       5.456565612392e-01       0.000000000000e+00      -1.359670658324e+01       1.152403753947e-07       5.017009963437e-04      -1.942723553109e-06 
   84       2.418774554133e+03       5.618815677921e-01       0.000000000000e+00      -1.422753166746e+01       1.145032474190e-07       4.950373614795e-04      -1.951946721855e-06 
   85       2.449275330135e+03       5.781915487626e-01       0.000000000000e+00      -1.486711701903e+01       1.137616708237e-07       4.885166594306e-04      -1.963547307695e-06 
   86       2.480038169913e+03       5.945736579559e-01       0.000000000000e+00      -1.551504821475e+01       1.130216185388e-07       4.821535990869e-04      -1.977164635954e-06 
   87       2.511064679911e+03       6.110146875758e-01       0.000000000000e+00      -1.617089574836e+01       1.122876750757e-07       4.759572511006e-04      -1.992353344650e-06 
   88       2.542354524204e+03       6.275010681205e-01       0.000000000000e+00      -1.683421504897e+01       1.115627874511e-07       4.699304921160e-04      -2.008577651761e-06 
   89       2.573905330163e+03       6.440188682776e-01       0.000000000000e+00      -1.750454649945e+01       1.108480007989e-07       4.640694330128e-04      -2.025205480271e-06 
   90       2.605712594122e+03       6.605537948201e-01       0.000000000000e+00      -1.818141545480e+01       1.101421783114e-07       4.583628311658e-04      -2.041502440992e-06 
   91       2.637769587041e+03       6.770911925018e-01       0.000000000000e+00      -1.886433226052e+01       1.094417051512e-07       4.527914867184e-04      -2.056625673174e-06 
   92       2.670067260175e+03       6.936160439528e-01       0.000000000000e+00      -1.955279227106e+01       1.087401759753e-07       4.473276228716e-04      -2.069617542878e-06 
   93       2.702596932694e+03       7.101132244274e-01       0.000000000000e+00      -2.024628535959e+01       1.080310316130e-07       4.419443510721e-04      -2.079622330750e-06 
   94       2.735359021849e+03       7.265683101022e-01       0.000000000000e+00      -2.094432604370e+01       1.073171419404e-07       4.366479426276e-04      -2.086606931614e-06 
   95       2.768355457519e+03       7.429668917189e-01       0.000000000000e+00      -2.164642794569e+01       1.066034617969e-07       4.314516337022e-04      -2.090790219507e-06 
   96       2.801586961850e+03       7.592943339117e-01       0.000000000000e+00      -2.235209485156e+01       1.058941840649e-07       4.263659000813e-04      -2.092436445831e-06 
   97       2.835052993106e+03       7.755357786017e-01       0.000000000000e+00      -2.306082085965e+01       1.051926054524e-07       4.213981912959e-04      -2.091857808536e-06 
   98       2.868751689523e+03       7.916761483904e-01       0.000000000000e+00      -2.377209052933e+01       1.045009846599e-07       4.165526576598e-04      -2.089417075633e-06 
   99       2.902679813162e+03       8.077001499538e-01       0.000000000000e+00      -2.448537902970e+01       1.038203927691e-07       4.118298702191e-04      -2.085530263040e-06 
  100       2.936832693763e+03       8.235922774358e-01       0.000000000000e+00      -2.520015228822e+01       1.031505556902e-07       4.072265336145e-04      -2.080669366753e-06 
  101       2.971204172593e+03       8.393368158428e-01       0.000000000000e+00      -2.591586713942e+01       1.024896885039e-07       4.027351918564e-04      -2.075365149356e-06 
  102       3.005786546303e+03       8.549178444368e-01       0.000000000000e+00      -2.663197147356e+01       1.018343215360e-07       3.983439270118e-04      -2.070209980853e-06 
  103       3.040570510782e+03       8.703192401298e-01       0.000000000000e+00      -2.734790438533e+01       1.011791180012e-07       3.940360508051e-04      -2.065860733834e-06 
  104       3.075547074538e+03       8.855250664922e-01       0.000000000000e+00      -2.806310031627e+01       1.005188498573e-07       3.897956787961e-04      -2.062900787657e-06 
  105       3.110713714166e+03       9.005207933175e-01       0.000000000000e+00      -2.877700179935e+01       9.985537163662e-08       3.856264424710e-04      -2.061387514598e-06 
  106       3.146068949590e+03       9.152922488971e-01       0.000000000000e+00      -2.948904872117e+01       9.919215488637e-08       3.815359687109e-04      -2.061218869974e-06 
  107       3.181610414702e+03       9.298252566564e-01       0.000000000000e+00      -3.019867467220e+01       9.853221322590e-08       3.775301829994e-04      -2.062264775579e-06 
