# total lensed [l(l+1)/2pi] C_l's (units: [microK]^2)
# for l=2 to 2500, i.e. number of multipoles equal to 2499
#
# -> if you don't want to see such a header, set 'headers' to 'no' in input file
# -> for CMB lensing (d), these are C_l^dd for the deflection field.
#    Remember the conversion factors:
#    C_l^dd (deflection) = l(l+1) C_l^phi-phi
#    C_l^gg (shear/convergence) = 1/4 (l(l+1))^2 C_l^phi-phi
#
# 1:l     2:TT                     3:EE                     4:BB                     5:TE                     6:dd                     7:dT                     8:dE                 
    2       1.156074930922e+03       3.965514621479e-02       1.706668343460e-06       3.017155844556e+00       5.143180497463e-08       3.476119006232e-03      -1.439077901891e-05 
    3       1.082035800808e+03       5.009608276955e-02       3.414132060690e-06       3.403764036124e+00       6.337277408903e-08       3.466750317287e-03      -1.528259410926e-05 
    4       1.015256653895e+03       4.259405765806e-02       5.691970494123e-06       3.176996203522e+00       7.337284892722e-08       3.376347003561e-03      -1.275156703734e-05 
    5       9.655811384255e+02       2.788255302314e-02       8.541197053103e-06       2.691552541168e+00       8.207656833290e-08       3.256829473538e-03      -8.501058404972e-06 
    6       9.312290540848e+02       1.531021816191e-02       1.196303917229e-05       2.149833793939e+00       8.971246157709e-08       3.127817430243e-03      -3.941026910498e-06 
    7       9.084575432057e+02       8.194816598708e-03       1.595891392373e-05       1.669068187355e+00       9.646528234340e-08       2.998863319593e-03      -1.375477406727e-07 
    8       8.945015237750e+02       5.303118752152e-03       2.053040049470e-05       1.300412422226e+00       1.024791004299e-07       2.875213799671e-03       2.297840304197e-06 
    9       8.870543935175e+02       4.252647182251e-03       2.567921037568e-05       1.054404525121e+00       1.078507989507e-07       2.759530793307e-03       3.216597444890e-06 
   10       8.841916620334e+02       3.586140143874e-03       3.140715616083e-05       9.184024634830e-01       1.126419514179e-07       2.652139994810e-03       2.856560786943e-06 
   11       8.851718917674e+02       2.985082837590e-03       3.771611988901e-05       8.679968281651e-01       1.141733271755e-07       2.564015185916e-03       1.710924613779e-06 
   12       8.888664096834e+02       2.595909942740e-03       4.460802184560e-05       8.756250910750e-01       1.178760917842e-07       2.463167174353e-03       2.993219915708e-07 
   13       8.947414260962e+02       2.486658820097e-03       5.208479070624e-05       9.170558025314e-01       1.211877224542e-07       2.375194215047e-03      -8.993302091824e-07 
   14       9.022523201439e+02       2.563748034532e-03       6.014833583255e-05       9.743935810296e-01       1.241514929442e-07       2.284005863197e-03      -1.622434987047e-06 
   15       9.113600769830e+02       2.727492062618e-03       6.880052243199e-05       1.036741461570e+00       1.268036950335e-07       2.201570475267e-03      -1.781779940265e-06 
   16       9.215984947140e+02       2.973300995072e-03       7.804315017174e-05       1.099225938592e+00       1.291770412596e-07       2.124386086198e-03      -1.485130326605e-06 
   17       9.329117794869e+02       3.357429749705e-03       8.787793569557e-05       1.161483768474e+00       1.312990628272e-07       2.050952712786e-03      -9.479551846317e-07 
   18       9.449182083488e+02       3.921394107251e-03       9.830649760818e-05       1.225438109877e+00       1.331419952962e-07       1.980608261312e-03      -4.193710241406e-07 
   19       9.577022788982e+02       4.663319459756e-03       1.093303561656e-04       1.293163941432e+00       1.348804782184e-07       1.915423648815e-03      -5.308221458425e-08 
   20       9.711078751582e+02       5.562075641607e-03       1.209509094667e-04       1.366358399990e+00       1.363709396268e-07       1.853850886803e-03       3.643238525633e-08 
   21       9.851806847207e+02       6.611170811129e-03       1.331694594618e-04       1.444634436102e+00       1.377040816916e-07       1.795931321967e-03      -1.357696441213e-07 
   22       9.997769964086e+02       7.805941738031e-03       1.459871856457e-04       1.526129741992e+00       1.388539748284e-07       1.739592271999e-03      -4.636510587655e-07 
   23       1.014884424973e+03       9.144828003321e-03       1.594051835385e-04       1.607463474408e+00       1.398933491320e-07       1.685428876462e-03      -8.367104689001e-07 
   24       1.030377056126e+03       1.062600835677e-02       1.734244379535e-04       1.684443967727e+00       1.407724390174e-07       1.633429874665e-03      -1.124570877915e-06 
   25       1.046334558626e+03       1.225045848131e-02       1.880458759718e-04       1.754689904501e+00       1.415477536955e-07       1.584672737275e-03      -1.264399871125e-06 
   26       1.062756852113e+03       1.402234611130e-02       2.032703346360e-04       1.816479734043e+00       1.421969727318e-07       1.539234563126e-03      -1.231173260710e-06 
   27       1.079538090332e+03       1.596007104581e-02       2.190986111114e-04       1.869272227282e+00       1.427480070886e-07       1.496345236096e-03      -1.072234699452e-06 
   28       1.096478007313e+03       1.808631776225e-02       2.355314408024e-04       1.913151055815e+00       1.431634290616e-07       1.454156409150e-03      -8.745786756950e-07 
   29       1.113653780658e+03       2.041324716760e-02       2.525695753465e-04       1.948830204188e+00       1.435189513178e-07       1.413391565442e-03      -6.907414668834e-07 
   30       1.131147448732e+03       2.294960248008e-02       2.702137202974e-04       1.977545992494e+00       1.438358123344e-07       1.374986307731e-03      -5.732163262911e-07 
   31       1.148957242513e+03       2.570328342099e-02       2.884645350326e-04       2.000511825596e+00       1.440313631136e-07       1.339050044583e-03      -5.737073082364e-07 
   32       1.167101484381e+03       2.868008965424e-02       3.073227257254e-04       2.017116521545e+00       1.441519071890e-07       1.305431933094e-03      -6.765045942047e-07 
   33       1.185531959019e+03       3.188434475342e-02       3.267889879220e-04       2.026034017261e+00       1.442267466052e-07       1.273061354131e-03      -8.277975939369e-07 
   34       1.204148301436e+03       3.532017642986e-02       3.468639946520e-04       2.025834009008e+00       1.442183104694e-07       1.240306140575e-03      -9.617819052861e-07 
   35       1.222983089448e+03       3.899519653904e-02       3.675484347795e-04       2.015564746585e+00       1.441595037015e-07       1.207695866763e-03      -1.052980236654e-06 
   36       1.242068049871e+03       4.291806721258e-02       3.888429912442e-04       1.994357441465e+00       1.440573834151e-07       1.176322659876e-03      -1.086984187441e-06 
   37       1.261397186747e+03       4.709696778843e-02       4.107483227704e-04       1.961434877317e+00       1.438716410133e-07       1.147030534921e-03      -1.053474373722e-06 
   38       1.280990003257e+03       5.153765186896e-02       4.332650284357e-04       1.916686984291e+00       1.436418832709e-07       1.120078372930e-03      -9.676471333704e-07 
   39       1.300839826661e+03       5.624469889710e-02       4.563936740296e-04       1.860291650300e+00       1.434049819234e-07       1.095198011527e-03      -8.599289798665e-07 
   40       1.320890545804e+03       6.122197576840e-02       4.801348031321e-04       1.792571633177e+00       1.431472612682e-07       1.071561833647e-03      -7.724736075084e-07 
   41       1.341068884800e+03       6.647332245028e-02       5.044889047558e-04       1.713856039192e+00       1.428202465621e-07       1.048097689613e-03      -7.478615359757e-07 
   42       1.361405763358e+03       7.200498688031e-02       5.294563006408e-04       1.623989927169e+00       1.424472132981e-07       1.024876993557e-03      -7.845166117949e-07 
   43       1.381946108794e+03       7.782390596421e-02       5.550372233439e-04       1.522679486082e+00       1.420543758312e-07       1.002224420568e-03      -8.624584622568e-07 
   44       1.402712691429e+03       8.393704736118e-02       5.812318456038e-04       1.409623831085e+00       1.416342305855e-07       9.803310567767e-04      -9.533856272989e-07 
   45       1.423711888617e+03       9.035067145015e-02       6.080402407996e-04       1.284510787946e+00       1.411581838433e-07       9.592774243178e-04      -1.027592889856e-06 
   46       1.444958679548e+03       9.706784356328e-02       6.354622528248e-04       1.147006439685e+00       1.406511685324e-07       9.391885859375e-04      -1.081103773257e-06 
   47       1.466455046038e+03       1.040901856253e-01       6.634975854369e-04       9.967597866879e-01       1.401422590388e-07       9.200968093638e-04      -1.118732787693e-06 
   48       1.488180583842e+03       1.114185168061e-01       6.921458340892e-04       8.334034461560e-01       1.396396247089e-07       9.018701632621e-04      -1.147345985175e-06 
   49       1.510090575942e+03       1.190528152362e-01       7.214064826160e-04       6.565519311452e-01       1.391241893430e-07       8.841858234295e-04      -1.176106255427e-06 
   50       1.532136819529e+03       1.269928332495e-01       7.512788972656e-04       4.658455982465e-01       1.385620282946e-07       8.666553040054e-04      -1.214403936027e-06 
   51       1.554341241529e+03       1.352402288067e-01       7.817623145857e-04       2.611005465124e-01       1.379675931345e-07       8.493291825226e-04      -1.264020039524e-06 
   52       1.576738934745e+03       1.437969464458e-01       8.128558445182e-04       4.219643211437e-02       1.373616665423e-07       8.323465230294e-04      -1.324256544167e-06 
   53       1.599356314987e+03       1.526646069707e-01       8.445584694036e-04      -1.909652261096e-01       1.367514639943e-07       8.157895340529e-04      -1.393943176833e-06 
   54       1.622210265123e+03       1.618444999206e-01       8.768690405407e-04      -4.384606185030e-01       1.361269121192e-07       7.996735083958e-04      -1.471382022247e-06 
   55       1.645310496642e+03       1.713374392069e-01       9.097863523872e-04      -7.003484865528e-01       1.354693015751e-07       7.839787049501e-04      -1.554450453307e-06 
   56       1.668669282218e+03       1.811433052767e-01       9.433093946286e-04      -9.766870382052e-01       1.347925944399e-07       7.687852831718e-04      -1.641093692853e-06 
   57       1.692292641670e+03       1.912613760229e-01       9.774371567025e-04      -1.267520484735e+00       1.341149195041e-07       7.541694604863e-04      -1.728913144694e-06 
   58       1.716176621597e+03       2.016904410728e-01       1.012168555237e-03      -1.572873920824e+00       1.334454812809e-07       7.401586377161e-04      -1.814977491000e-06 
   59       1.740306564792e+03       2.124287889258e-01       1.047502433637e-03      -1.892753101734e+00       1.327822715457e-07       7.267242212912e-04      -1.895776042126e-06 
   60       1.764656379653e+03       2.234741940932e-01       1.083437561665e-03      -2.227144220488e+00       1.321095720209e-07       7.137741372874e-04      -1.967170486047e-06 
   61       1.789199620294e+03       2.348236734106e-01       1.119972775854e-03      -2.576012713405e+00       1.314063130339e-07       7.011950283006e-04      -2.025267921976e-06 
   62       1.813947285927e+03       2.464727201549e-01       1.157107438496e-03      -2.939299867507e+00       1.306822565117e-07       6.890139531025e-04      -2.069504125056e-06 
   63       1.838917248132e+03       2.584158744117e-01       1.194841081410e-03      -3.316925052738e+00       1.299529230587e-07       6.772768800205e-04      -2.100502625329e-06 
   64       1.864122840041e+03       2.706469189470e-01       1.233173278181e-03      -3.708786377781e+00       1.292287334720e-07       6.659996113154e-04      -2.119275025017e-06 
   65       1.889572500506e+03       2.831588590214e-01       1.272103648212e-03      -4.114760436401e+00       1.285137482024e-07       6.551638245592e-04      -2.127258310034e-06 
   66       1.915269418244e+03       2.959439022056e-01       1.311631860776e-03      -4.534702053798e+00       1.278043009013e-07       6.447129605950e-04      -2.126353418023e-06 
   67       1.941211176002e+03       3.089934381950e-01       1.351757639072e-03      -4.968444032951e+00       1.270875226827e-07       6.345479580798e-04      -2.118965062920e-06 
   68       1.967393868974e+03       3.222987343592e-01       1.392480827605e-03      -5.415801820622e+00       1.263477241402e-07       6.245629047401e-04      -2.107550994489e-06 
   69       1.993826224519e+03       3.358532311680e-01       1.433801601139e-03      -5.876589170250e+00       1.255924081017e-07       6.147749213560e-04      -2.093014017008e-06 
   70       2.020517717365e+03       3.496506777550e-01       1.475720305557e-03      -6.350605211681e+00       1.248337615767e-07       6.052255596839e-04      -2.075897823764e-06 
   71       2.047474111400e+03       3.636844554898e-01       1.518237403850e-03      -6.837629686783e+00       1.240809253435e-07       5.959424259766e-04      -2.056842994895e-06 
   72       2.074697218259e+03       3.779475760983e-01       1.561353481789e-03      -7.337422821614e+00       1.233392909179e-07       5.869374024884e-04      -2.036593164312e-06 
   73       2.102184655912e+03       3.924326797831e-01       1.605069253597e-03      -7.849725198593e+00       1.226097438626e-07       5.782048053316e-04      -2.016001341350e-06 
   74       2.129929607253e+03       4.071320333432e-01       1.649385567621e-03      -8.374257628670e+00       1.218878518896e-07       5.697194786815e-04      -1.996036387142e-06 
   75       2.157920578687e+03       4.220375282946e-01       1.694303412005e-03      -8.910721023493e+00       1.211629962090e-07       5.614348253313e-04      -1.977789645715e-06 
   76       2.186146427082e+03       4.371404075316e-01       1.739823840976e-03      -9.458807924958e+00       1.204230712647e-07       5.533012818880e-04      -1.962289707367e-06 
   77       2.214613032578e+03       4.524303919222e-01       1.785947725636e-03      -1.001823980367e+01       1.196727783025e-07       5.453322656267e-04      -1.949872245968e-06 
   78       2.243329241677e+03       4.678963902877e-01       1.832675967821e-03      -1.058873636139e+01       1.189202173859e-07       5.375524721484e-04      -1.940650983501e-06 
   79       2.272301737373e+03       4.835267494065e-01       1.880009579435e-03      -1.117000458649e+01       1.181714443419e-07       5.299780045442e-04      -1.934690169808e-06 
   80       2.301534905776e+03       4.993092465674e-01       1.927949686495e-03      -1.176173886512e+01       1.174300615277e-07       5.226154133099e-04      -1.931999556672e-06 
   81       2.331030702728e+03       5.152310821237e-01       1.976497533173e-03      -1.236362109246e+01       1.166967807720e-07       5.154607055955e-04      -1.932529217784e-06 
   82       2.360788520425e+03       5.312788720465e-01       2.025654485846e-03      -1.297532078395e+01       1.159689577716e-07       5.084983237874e-04      -1.936164214605e-06 
   83       2.390805054037e+03       5.474386404783e-01       2.075422037135e-03      -1.359649518643e+01       1.152400972238e-07       5.017000934252e-04      -1.942719108110e-06 
   84       2.421076492944e+03       5.636962507544e-01       2.125801784105e-03      -1.422678392610e+01       1.145029710227e-07       4.950364424432e-04      -1.951942278049e-06 
   85       2.451605804003e+03       5.800387968740e-01       2.176795349828e-03      -1.486579168900e+01       1.137613961926e-07       4.885157294239e-04      -1.963542874387e-06 
   86       2.482396416757e+03       5.964534301257e-01       2.228404456172e-03      -1.551310285984e+01       1.130213456486e-07       4.821526634336e-04      -1.977160220900e-06 
   87       2.513449913257e+03       6.129269410537e-01       2.280630952050e-03      -1.616828674917e+01       1.122874038912e-07       4.759563152752e-04      -1.992348953782e-06 
   88       2.544765933741e+03       6.294457593809e-01       2.333476817027e-03      -1.683089761279e+01       1.115625179304e-07       4.699295617145e-04      -2.008573288891e-06 
   89       2.576342082331e+03       6.459959539318e-01       2.386944164938e-03      -1.750047467112e+01       1.108477328982e-07       4.640685137214e-04      -2.025201146779e-06 
   90       2.608173832716e+03       6.625632325553e-01       2.441035247490e-03      -1.817654212859e+01       1.101419119909e-07       4.583619287270e-04      -2.041498135502e-06 
   91       2.640254433844e+03       6.791329420478e-01       2.495752457877e-03      -1.885860919305e+01       1.094414403814e-07       4.527906068944e-04      -2.056621391203e-06 
   92       2.672574815612e+03       6.956900680757e-01       2.551098334386e-03      -1.954617009518e+01       1.087399127442e-07       4.473267714048e-04      -2.069613276473e-06 
   93       2.705126271814e+03       7.122194921266e-01       2.607075653733e-03      -2.023871363683e+01       1.080307699268e-07       4.419435335800e-04      -2.079618068851e-06 
   94       2.737909175426e+03       7.287068067361e-01       2.663687719263e-03      -2.093575343693e+01       1.073168817995e-07       4.366471642888e-04      -2.086602662825e-06 
   95       2.770925405831e+03       7.451376232988e-01       2.720938122969e-03      -2.163680229162e+01       1.066032031908e-07       4.314508990993e-04      -2.090785932969e-06 
   96       2.804175632912e+03       7.614973293704e-01       2.778830664412e-03      -2.234136319871e+01       1.058939269746e-07       4.263652130971e-04      -2.092432131402e-06 
   97       2.837659260863e+03       7.777710921180e-01       2.837369355562e-03      -2.304892950794e+01       1.051923498526e-07       4.213975550038e-04      -2.091853456986e-06 
   98       2.871374372006e+03       7.939438617722e-01       2.896558425638e-03      -2.375898507115e+01       1.045007305217e-07       4.165520742083e-04      -2.089412678852e-06 
   99       2.905317670598e+03       8.100003750771e-01       2.956402325952e-03      -2.447100439244e+01       1.038201400636e-07       4.118293407102e-04      -2.085525814256e-06 
  100       2.939484426646e+03       8.259251587422e-01       3.016905734752e-03      -2.518445277842e+01       1.031503043915e-07       4.072260579762e-04      -2.080664860763e-06 
  101       2.973868419717e+03       8.417025328930e-01       3.078073562060e-03      -2.589878648838e+01       1.024894385935e-07       4.027347687085e-04      -2.075360582771e-06 
  102       3.008461882750e+03       8.573166145221e-01       3.139910954514e-03      -2.661345288449e+01       1.018340730075e-07       3.983435535260e-04      -2.070205352356e-06 
  103       3.043255445870e+03       8.727513209406e-01       3.202423300214e-03      -2.732789058199e+01       1.011788708644e-07       3.940357225577e-04      -2.065856044454e-06 
  104       3.078240055319e+03       8.879907593798e-01       3.265616052160e-03      -2.804153358361e+01       1.005186041386e-07       3.897953899765e-04      -2.062896040619e-06 
  105       3.113413146498e+03       9.030204483050e-01       3.329494160998e-03      -2.875382399535e+01       9.985512735832e-08       3.856261872522e-04      -2.061382713792e-06 
  106       3.148773203943e+03       9.178262682851e-01       3.394062574315e-03      -2.946420131640e+01       9.919191206215e-08       3.815357416803e-04      -2.061214019558e-06 
  107       3.184317826605e+03       9.323940981763e-01       3.459326414012e-03      -3.017209879999e+01       9.853197186159e-08       3.775299792528e-04      -2.062259879985e-06 
