# total lensed [l(l+1)/2pi] C_l's (units: [microK]^2)
# for l=2 to 2500, i.e. number of multipoles equal to 2499
#
# -> if you don't want to see such a header, set 'headers' to 'no' in input file
# -> for CMB lensing (d), these are C_l^dd for the deflection field.
#    Remember the conversion factors:
#    C_l^dd (deflection) = l(l+1) C_l^phi-phi
#    C_l^gg (shear/convergence) = 1/4 (l(l+1))^2 C_l^phi-phi
#
# 1:l     2:TT                     3:EE                     4:BB                     5:TE                     6:dd                     7:dT                     8:dE                 
    2       1.156071579363e+03       3.965503125136e-02       1.706659317683e-06       3.017147097893e+00       5.143165595194e-08       3.476108928031e-03      -1.439073730038e-05 
    3       1.082032663960e+03       5.009593753401e-02       3.414114005447e-06       3.403754168692e+00       6.337259071873e-08       3.466740263701e-03      -1.528254980538e-05 
    4       1.015253711287e+03       4.259393416527e-02       5.691940393891e-06       3.176986993483e+00       7.337263725195e-08       3.376337234931e-03      -1.275153007087e-05 
    5       9.655783393366e+02       2.788247217186e-02       8.541151887551e-06       2.691544738424e+00       8.207633133226e-08       3.256820054139e-03      -8.501033760640e-06 
    6       9.312263537666e+02       1.531017374936e-02       1.196297591516e-05       2.149827561624e+00       8.971220196736e-08       3.127808362459e-03      -3.941015485484e-06 
    7       9.084549091242e+02       8.194792804000e-03       1.595882954182e-05       1.669063348781e+00       9.646500385775e-08       2.998854625813e-03      -1.375473418244e-07 
    8       8.944989316848e+02       5.303103329493e-03       2.053029194684e-05       1.300408652351e+00       1.024788042773e-07       2.875205499364e-03       2.297833642637e-06 
    9       8.870518217160e+02       4.252634792590e-03       2.567907461188e-05       1.054401468447e+00       1.078504852784e-07       2.759522818947e-03       3.216588119793e-06 
   10       8.841890966409e+02       3.586129672723e-03       3.140699012150e-05       9.183998010646e-01       1.126416257415e-07       2.652132276180e-03       2.856552506153e-06 
   11       8.851693238895e+02       2.985074093826e-03       3.771592050422e-05       8.679943119335e-01       1.141729972656e-07       2.564007746193e-03       1.710919654328e-06 
   12       8.888638347111e+02       2.595902310724e-03       4.460778603455e-05       8.756225526302e-01       1.178757511960e-07       2.463160106908e-03       2.993211232854e-07 
   13       8.947388309094e+02       2.486651486929e-03       5.208451537681e-05       9.170531440700e-01       1.211873723377e-07       2.375187405345e-03      -8.993276030568e-07 
   14       9.022497023022e+02       2.563740458599e-03       6.014801788096e-05       9.743907563247e-01       1.241511342966e-07       2.283999213056e-03      -1.622430282745e-06 
   15       9.113574295936e+02       2.727483991296e-03       6.880015874260e-05       1.036738456278e+00       1.268033287250e-07       2.201564045570e-03      -1.781774773240e-06 
   16       9.215958262488e+02       2.973292189035e-03       7.804273761701e-05       1.099222751947e+00       1.291766681135e-07       2.124380002275e-03      -1.485126022312e-06 
   17       9.329090725285e+02       3.357419806537e-03       8.787747113612e-05       1.161480401443e+00       1.312986835924e-07       2.050946882726e-03      -9.479524391814e-07 
   18       9.449154593817e+02       3.921382504149e-03       9.830597789300e-05       1.225434557660e+00       1.331416107856e-07       1.980602536258e-03      -4.193698076138e-07 
   19       9.576994915289e+02       4.663305679355e-03       1.093297781323e-04       1.293160192938e+00       1.348800887302e-07       1.915418021005e-03      -5.308205655685e-08 
   20       9.711050528141e+02       5.562059227818e-03       1.209502699422e-04       1.366354439081e+00       1.363705458601e-07       1.853845550247e-03       3.643227911711e-08 
   21       9.851778239858e+02       6.611151326682e-03       1.331687552627e-04       1.444630248087e+00       1.377036840862e-07       1.795926296908e-03      -1.357692564602e-07 
   22       9.997740872315e+02       7.805918759170e-03       1.459864135788e-04       1.526125317961e+00       1.388535739148e-07       1.739587280918e-03      -4.636497143515e-07 
   23       1.014881465725e+03       9.144801110781e-03       1.594043404017e-04       1.607458814803e+00       1.398929452396e-07       1.685423851768e-03      -8.367080351998e-07 
   24       1.030374056718e+03       1.062597713654e-02       1.734235205366e-04       1.684439084536e+00       1.407720326238e-07       1.633425132467e-03      -1.124567617478e-06 
   25       1.046331519307e+03       1.225042251661e-02       1.880448810572e-04       1.754684817099e+00       1.415473451014e-07       1.584668366919e-03      -1.264396216241e-06 
   26       1.062753759482e+03       1.402230497335e-02       2.032692589998e-04       1.816474467562e+00       1.421965622813e-07       1.539230226790e-03      -1.231169694452e-06 
   27       1.079534939515e+03       1.596002425246e-02       2.190974515240e-04       1.869266808343e+00       1.427475950606e-07       1.496340751884e-03      -1.072231578160e-06 
   28       1.096474807889e+03       1.808626476557e-02       2.355301940296e-04       1.913145510406e+00       1.431630158737e-07       1.454151965758e-03      -8.745761255818e-07 
   29       1.113650540886e+03       2.041318738435e-02       2.525682381498e-04       1.948824555913e+00       1.435185371633e-07       1.413387374030e-03      -6.907394621082e-07 
   30       1.131144169652e+03       2.294953530172e-02       2.702122894353e-04       1.977540261017e+00       1.438353973154e-07       1.374982448410e-03      -5.732146788445e-07 
   31       1.148953917889e+03       2.570320821604e-02       2.884630072613e-04       2.000506026809e+00       1.440309475348e-07       1.339046439879e-03      -5.737056682604e-07 
   32       1.167098106949e+03       2.868000577447e-02       3.073210977989e-04       2.017110673575e+00       1.441514912217e-07       1.305428467657e-03      -6.765026551056e-07 
   33       1.185528522846e+03       3.188425153810e-02       3.267872565930e-04       2.026028142893e+00       1.442263303585e-07       1.273057921008e-03      -8.277952066889e-07 
   34       1.204144802525e+03       3.532007320635e-02       3.468621566725e-04       2.025828135881e+00       1.442178941905e-07       1.240302655521e-03      -9.617791143372e-07 
   35       1.222979525599e+03       3.899508261265e-02       3.675464869004e-04       2.015558904639e+00       1.441590875468e-07       1.207692284072e-03      -1.052977163617e-06 
   36       1.242064421122e+03       4.291794186349e-02       3.888409302162e-04       1.994351662217e+00       1.440569675134e-07       1.176318991857e-03      -1.086981000193e-06 
   37       1.261393495424e+03       4.709683027313e-02       4.107461453441e-04       1.961429193636e+00       1.438712256006e-07       1.147026855776e-03      -1.053471274769e-06 
   38       1.280986251783e+03       5.153750142726e-02       4.332627313610e-04       1.916681429450e+00       1.436414684677e-07       1.120074756333e-03      -9.676442813527e-07 
   39       1.300836016898e+03       5.624453475555e-02       4.563912540556e-04       1.860286257496e+00       1.434045677463e-07       1.095194504653e-03      -8.599264434589e-07 
   40       1.320886678986e+03       6.122179714237e-02       4.801322570078e-04       1.792566435222e+00       1.431468477769e-07       1.071558445900e-03      -7.724713304918e-07 
   41       1.341064961474e+03       6.647312854402e-02       5.044862292297e-04       1.713851068454e+00       1.428198339606e-07       1.048094390882e-03      -7.478593356587e-07 
   42       1.361401783328e+03       7.200477687996e-02       5.294534924603e-04       1.623985216380e+00       1.424468017257e-07       1.024873750587e-03      -7.845143091336e-07 
   43       1.381942071059e+03       7.782367903580e-02       5.550342792550e-04       1.522675068527e+00       1.420539653537e-07       1.002221211006e-03      -8.624559358229e-07 
   44       1.402708594119e+03       8.393680265054e-02       5.812287623511e-04       1.409619740561e+00       1.416338212921e-07       9.803278743331e-04      -9.533828373966e-07 
   45       1.423707729189e+03       9.035040808497e-02       6.080370151260e-04       1.284507058875e+00       1.411577759073e-07       9.592742799512e-04      -1.027589882685e-06 
   46       1.444954455824e+03       9.706756066239e-02       6.354588814720e-04       1.147003107749e+00       1.406507620522e-07       9.391854932236e-04      -1.081100606762e-06 
   47       1.466450756655e+03       1.040898823030e-01       6.634940651446e-04       9.967568890975e-01       1.401418540237e-07       9.200937798604e-04      -1.118729506326e-06 
   48       1.488176228477e+03       1.114181921741e-01       6.921421615956e-04       8.334010217912e-01       1.396392211366e-07       9.018672059034e-04      -1.147342614141e-06 
   49       1.510086155557e+03       1.190524684068e-01       7.214026546571e-04       6.565500207011e-01       1.391237872354e-07       8.841829438627e-04      -1.176102794228e-06 
   50       1.532132336205e+03       1.269924633355e-01       7.512749105759e-04       4.658442439634e-01       1.385616277612e-07       8.666525049063e-04      -1.214400357954e-06 
   51       1.554336696922e+03       1.352398349160e-01       7.817581658989e-04       2.610997904964e-01       1.379671942435e-07       8.493264674665e-04      -1.264016313585e-06 
   52       1.576734329570e+03       1.437965276809e-01       8.128515305678e-04       4.219631570167e-02       1.373612693077e-07       8.323438981327e-04      -1.324252642352e-06 
   53       1.599351648888e+03       1.526641624290e-01       8.445539869231e-04      -1.909646626052e-01       1.367510684179e-07       8.157870087820e-04      -1.393939075643e-06 
   54       1.622205536535e+03       1.618440286959e-01       8.768643862636e-04      -4.384593360522e-01       1.361265182440e-07       7.996710964662e-04      -1.471377704406e-06 
   55       1.645305702895e+03       1.713369403905e-01       9.097815230475e-04      -7.003464472856e-01       1.354689095106e-07       7.839764230865e-04      -1.554445908651e-06 
   56       1.668664420442e+03       1.811427779602e-01       9.433043869626e-04      -9.766842039847e-01       1.347922042583e-07       7.687831422797e-04      -1.641088915972e-06 
   57       1.692287709087e+03       1.912608193003e-01       9.774319674502e-04      -1.267516816727e+00       1.341145312246e-07       7.541674617868e-04      -1.728908134944e-06 
   58       1.716171615589e+03       2.016898540414e-01       1.012163181142e-03      -1.572869379432e+00       1.334450948944e-07       7.401567707164e-04      -1.814972253490e-06 
   59       1.740301482979e+03       2.124281706883e-01       1.047496871447e-03      -1.892747646527e+00       1.327818870461e-07       7.267224615842e-04      -1.895770588791e-06 
   60       1.764651219968e+03       2.234735437588e-01       1.083431808133e-03      -2.227137810128e+00       1.321091894432e-07       7.137724441751e-04      -1.967164836808e-06 
   61       1.789194381078e+03       2.348229900973e-01       1.119966827738e-03      -2.576005305626e+00       1.314059324692e-07       7.011933466481e-04      -2.025262104419e-06 
   62       1.813941966081e+03       2.464720029938e-01       1.157101292560e-03      -2.939291419291e+00       1.306818780217e-07       6.890122299938e-04      -2.069498168873e-06 
   63       1.838911847226e+03       2.584151225503e-01       1.194834734423e-03      -3.316915520334e+00       1.299525466600e-07       6.772750712370e-04      -2.100496560405e-06 
   64       1.864117358429e+03       2.706461315507e-01       1.233166726919e-03      -3.708775716657e+00       1.292283591508e-07       6.659976840526e-04      -2.119268880883e-06 
   65       1.889566939428e+03       2.831580352764e-01       1.272096889456e-03      -4.114748601199e+00       1.285133759326e-07       6.551617603857e-04      -2.127252115268e-06 
   66       1.915263779952e+03       2.959430413209e-01       1.311624891317e-03      -4.534688998281e+00       1.278039306669e-07       6.447107586616e-04      -2.126347199585e-06 
   67       1.941205463874e+03       3.089925394049e-01       1.351750455706e-03      -4.968429709948e+00       1.270871545040e-07       6.345456385877e-04      -2.118958845428e-06 
   68       1.967388087245e+03       3.222977969235e-01       1.392473427138e-03      -5.415786182584e+00       1.263473580823e-07       6.245605078645e-04      -2.107544799730e-06 
   69       1.993820376743e+03       3.358522543654e-01       1.433793980376e-03      -5.876572171776e+00       1.255920442073e-07       6.147724903016e-04      -2.093007864398e-06 
   70       2.020511805889e+03       3.496496608819e-01       1.475712461306e-03      -6.350586810467e+00       1.248333998530e-07       6.052231352940e-04      -2.075891730029e-06 
   71       2.047468137213e+03       3.636833978613e-01       1.518229332918e-03      -6.837609844010e+00       1.240805657707e-07       5.959400456526e-04      -2.056836973436e-06 
   72       2.074691180834e+03       3.779464770495e-01       1.561345180984e-03      -7.337401502345e+00       1.233389334603e-07       5.869350990185e-04      -2.036587224524e-06 
   73       2.102178553041e+03       3.924315386697e-01       1.605060719725e-03      -7.849702372185e+00       1.226093884813e-07       5.782026056227e-04      -2.015995487886e-06 
   74       2.129923434878e+03       4.071308495428e-01       1.649376797487e-03      -8.374233269197e+00       1.218874985580e-07       5.697174023942e-04      -1.996030619136e-06 
   75       2.157914330723e+03       4.220363012078e-01       1.694294402415e-03      -8.910695110185e+00       1.211626449306e-07       5.614328834136e-04      -1.977783955948e-06 
   76       2.186140095846e+03       4.371391365838e-01       1.739814588730e-03      -9.458780441307e+00       1.204227220775e-07       5.532994765998e-04      -1.962284082605e-06 
   77       2.214606611162e+03       4.524290765689e-01       1.785938227527e-03      -1.001821073228e+01       1.196724312316e-07       5.453305957482e-04      -1.949866671298e-06 
   78       2.243322724718e+03       4.678950300175e-01       1.832666220633e-03      -1.058870568232e+01       1.189198724342e-07       5.375509342276e-04      -1.940645443662e-06 
   79       2.272295121261e+03       4.835253437425e-01       1.879999579939e-03      -1.116997227686e+01       1.181711014961e-07       5.299765926598e-04      -1.934684649416e-06 
   80       2.301528188863e+03       4.993077950691e-01       1.927939431449e-03      -1.176170489870e+01       1.174297207659e-07       5.226141188235e-04      -1.931994040461e-06 
   81       2.331023885548e+03       5.152295843884e-01       1.976487019322e-03      -1.236358543926e+01       1.166964420726e-07       5.154595168912e-04      -1.932523690879e-06 
   82       2.360781605919e+03       5.312773277116e-01       2.025643709919e-03      -1.297528340975e+01       1.159686211229e-07       5.084972259998e-04      -1.936158662806e-06 
   83       2.390798047785e+03       5.474370492230e-01       2.075410995845e-03      -1.359645605236e+01       1.152397626361e-07       5.016990681546e-04      -1.942713518210e-06 
   84       2.421069402668e+03       5.636946122994e-01       2.125790474146e-03      -1.422674298953e+01       1.145026385301e-07       4.950354684027e-04      -1.951936638135e-06 
   85       2.451598636713e+03       5.800371109772e-01       2.176783767882e-03      -1.486574890889e+01       1.137610658186e-07       4.885147861759e-04      -1.963537174056e-06 
   86       2.482389177878e+03       5.964516965810e-01       2.228392598904e-03      -1.551305819839e+01       1.130210173997e-07       4.821517327792e-04      -1.977154451585e-06 
   87       2.513442606442e+03       6.129251596923e-01       2.280618816111e-03      -1.616824017212e+01       1.122870777602e-07       4.759553817993e-04      -1.992343109132e-06 
   88       2.544758560693e+03       6.294439300720e-01       2.333464399054e-03      -1.683084908975e+01       1.115621939010e-07       4.699286133675e-04      -2.008567365178e-06 
   89       2.576334642612e+03       6.459940765838e-01       2.386931461548e-03      -1.750042417587e+01       1.108474109506e-07       4.640675424388e-04      -2.025195143333e-06 
   90       2.608166323551e+03       6.625613071164e-01       2.441022255283e-03      -1.817648963946e+01       1.101415921075e-07       4.583609310862e-04      -2.041492055166e-06 
   91       2.640246849922e+03       6.791309685070e-01       2.495739173434e-03      -1.885855469325e+01       1.094411225538e-07       4.527895848108e-04      -2.056615240817e-06 
   92       2.672567148878e+03       6.956880464640e-01       2.551084754268e-03      -1.954611357313e+01       1.087395969810e-07       4.473257328680e-04      -2.069607067392e-06 
   93       2.705118511933e+03       7.122174225173e-01       2.607061774479e-03      -2.023865508575e+01       1.080304562536e-07       4.419424919712e-04      -2.079611816481e-06 
   94       2.737901312377e+03       7.287046892445e-01       2.663673537398e-03      -2.093569285174e+01       1.073165702330e-07       4.366461329854e-04      -2.086596382941e-06 
   95       2.770917430681e+03       7.451354580831e-01       2.720923635000e-03      -2.163673966812e+01       1.066028937325e-07       4.314498898084e-04      -2.090779640580e-06 
   96       2.804167537947e+03       7.614951166319e-01       2.778815866830e-03      -2.234129853356e+01       1.058936196129e-07       4.263642355387e-04      -2.092425840548e-06 
   97       2.837651039731e+03       7.777688321025e-01       2.837354244841e-03      -2.304886279856e+01       1.051920445652e-07       4.213966165753e-04      -2.091847180514e-06 
   98       2.871366019854e+03       7.939415547700e-01       2.896542998235e-03      -2.375891631567e+01       1.045004272789e-07       4.165511796303e-04      -2.089406428180e-06 
   99       2.905309184216e+03       8.099980214244e-01       2.956386578307e-03      -2.447093358968e+01       1.038198388307e-07       4.118284916535e-04      -2.085519599130e-06 
  100       2.939475804618e+03       8.259227588214e-01       3.016889663283e-03      -2.518437992778e+01       1.031500051334e-07       4.072252526687e-04      -2.080658688996e-06 
  101       2.973859662572e+03       8.417000871334e-01       3.078057163166e-03      -2.589871158981e+01       1.024891412785e-07       4.027340015227e-04      -2.075354459969e-06 
  102       3.008452993122e+03       8.573141234011e-01       3.139894224576e-03      -2.661337593840e+01       1.018337776117e-07       3.983428145455e-04      -2.070199281629e-06 
  103       3.043246428654e+03       8.727487849837e-01       3.202406235591e-03      -2.732781158919e+01       1.011785773774e-07       3.940349971236e-04      -2.065850026116e-06 
  104       3.078230917344e+03       8.879881791604e-01       3.265598649188e-03      -2.804145254548e+01       1.005183125630e-07       3.897946594152e-04      -2.062890072365e-06 
  105       3.113403894648e+03       9.030178244382e-01       3.329476415983e-03      -2.875374091485e+01       9.985483769107e-08       3.856254334688e-04      -2.061376792458e-06 
  106       3.148763844625e+03       9.178236014264e-01       3.394044483531e-03      -2.946411619834e+01       9.919162429034e-08       3.815349486283e-04      -2.061208141593e-06 
  107       3.184308365687e+03       9.323913890213e-01       3.459307973701e-03      -3.017201165108e+01       9.853168596393e-08       3.775291332864e-04      -2.062254041453e-06 
