# total lensed [l(l+1)/2pi] C_l's (units: [microK]^2)
# for l=2 to 2500, i.e. number of multipoles equal to 2499
#
# -> if you don't want to see such a header, set 'headers' to 'no' in input file
# -> for CMB lensing (d), these are C_l^dd for the deflection field.
#    Remember the conversion factors:
#    C_l^dd (deflection) = l(l+1) C_l^phi-phi
#    C_l^gg (shear/convergence) = 1/4 (l(l+1))^2 C_l^phi-phi
#
# 1:l     2:TT                     3:EE                     4:BB                     5:TE                     6:dd                     7:dT                     8:dE                 
    2       1.156071150961e+03       3.965501655520e-02       1.706658107866e-06       3.017145979776e+00       5.143163679944e-08       3.476107632051e-03      -1.439073196738e-05 
    3       1.082032263240e+03       5.009591896806e-02       3.414111586774e-06       3.403752907307e+00       6.337256693327e-08       3.466738974577e-03      -1.528254414189e-05 
    4       1.015253335748e+03       4.259391837869e-02       5.691936364824e-06       3.176985816138e+00       7.337261047672e-08       3.376335988578e-03      -1.275152534536e-05 
    5       9.655779821322e+02       2.788246183616e-02       8.541145847603e-06       2.691543740981e+00       8.207630133495e-08       3.256818851648e-03      -8.501030610301e-06 
    6       9.312260097769e+02       1.531016807162e-02       1.196296746498e-05       2.149826764942e+00       8.971216828729e-08       3.127807190507e-03      -3.941014024930e-06 
    7       9.084545733026e+02       8.194789761783e-03       1.595881828315e-05       1.669062730273e+00       9.646496781154e-08       2.998853495041e-03      -1.375472907861e-07 
    8       8.944986028757e+02       5.303101357377e-03       2.053027748238e-05       1.300408170477e+00       1.024787653086e-07       2.875204423474e-03       2.297832790918e-06 
    9       8.870514948048e+02       4.252633208059e-03       2.567905654501e-05       1.054401077756e+00       1.078504434767e-07       2.759521779880e-03       3.216586927605e-06 
   10       8.841887727226e+02       3.586128333301e-03       3.140696805591e-05       9.183994608153e-01       1.126415835307e-07       2.652131284636e-03       2.856551447879e-06 
   11       8.851689985674e+02       2.985072975078e-03       3.771589404342e-05       8.679939903952e-01       1.141729550567e-07       2.564006789460e-03       1.710919020598e-06 
   12       8.888635104055e+02       2.595901333942e-03       4.460775478131e-05       8.756222283299e-01       1.178757075992e-07       2.463159193259e-03       2.993210117661e-07 
   13       8.947385042035e+02       2.486650548189e-03       5.208447893253e-05       9.170528044440e-01       1.211873274784e-07       2.375186533763e-03      -8.993272703971e-07 
   14       9.022493746222e+02       2.563739488650e-03       6.014797584502e-05       9.743903955992e-01       1.241510883205e-07       2.283998374231e-03      -1.622429680589e-06 
   15       9.113570977738e+02       2.727482957826e-03       6.880011071169e-05       1.036738072505e+00       1.268032817479e-07       2.201563224250e-03      -1.781774111920e-06 
   16       9.215954937903e+02       2.973291061408e-03       7.804268318452e-05       1.099222345223e+00       1.291766202460e-07       2.124379197821e-03      -1.485125473351e-06 
   17       9.329087349193e+02       3.357418533328e-03       8.787740989156e-05       1.161479971607e+00       1.312986349465e-07       2.050946101961e-03      -9.479520898867e-07 
   18       9.449151175562e+02       3.921381018499e-03       9.830590942151e-05       1.225434104282e+00       1.331415614460e-07       1.980601782875e-03      -4.193696512866e-07 
   19       9.576991474888e+02       4.663303915099e-03       1.093297020145e-04       1.293159714755e+00       1.348800387190e-07       1.915417297807e-03      -5.308203369272e-08 
   20       9.711047063336e+02       5.562057126637e-03       1.209501857535e-04       1.366353933898e+00       1.363704952859e-07       1.853844860669e-03       3.643226481221e-08 
   21       9.851774740676e+02       6.611148832638e-03       1.331686625739e-04       1.444629714015e+00       1.377036330390e-07       1.795925635177e-03      -1.357692111024e-07 
   22       9.997737329008e+02       7.805915818018e-03       1.459863119558e-04       1.526124754080e+00       1.388535224940e-07       1.739586631471e-03      -4.636495419086e-07 
   23       1.014881107173e+03       9.144797668898e-03       1.594042294060e-04       1.607458221249e+00       1.398928934862e-07       1.685423215570e-03      -8.367077180369e-07 
   24       1.030373695446e+03       1.062597314103e-02       1.734233997258e-04       1.684438462693e+00       1.407719805508e-07       1.633424533770e-03      -1.124567200858e-06 
   25       1.046331155518e+03       1.225041791417e-02       1.880447499857e-04       1.754684169411e+00       1.415472927247e-07       1.584667801715e-03      -1.264395757578e-06 
   26       1.062753391362e+03       1.402229970904e-02       2.032691172194e-04       1.816473797449e+00       1.421965096809e-07       1.539229649753e-03      -1.231169241051e-06 
   27       1.079534564949e+03       1.596001826458e-02       2.190972985852e-04       1.869266119555e+00       1.427475422829e-07       1.496340151878e-03      -1.072231168353e-06 
   28       1.096474425326e+03       1.808625798407e-02       2.355300294825e-04       1.913144806670e+00       1.431629629202e-07       1.454151391341e-03      -8.745757843016e-07 
   29       1.113650150356e+03       2.041317973469e-02       2.525680615450e-04       1.948823840397e+00       1.435184840021e-07       1.413386864346e-03      -6.907391963800e-07 
   30       1.131143773508e+03       2.294952670608e-02       2.702121003251e-04       1.977539535965e+00       1.438353439324e-07       1.374981998222e-03      -5.732144700706e-07 
   31       1.148953520408e+03       2.570319859368e-02       2.884628052009e-04       2.000505293622e+00       1.440308939831e-07       1.339045995851e-03      -5.737054707835e-07 
   32       1.167097710281e+03       2.867999504253e-02       3.073208823470e-04       2.017109934277e+00       1.441514375487e-07       1.305427985676e-03      -6.765024258609e-07 
   33       1.185528125169e+03       3.188423961218e-02       3.267870273128e-04       2.026027400750e+00       1.442262766023e-07       1.273057394937e-03      -8.277949205944e-07 
   34       1.204144398423e+03       3.532006000060e-02       3.468619131328e-04       2.025827395372e+00       1.442178404022e-07       1.240302121076e-03      -9.617787693759e-07 
   35       1.222979111114e+03       3.899506803840e-02       3.675462286754e-04       2.015558170307e+00       1.441590337647e-07       1.207691775432e-03      -1.052976769904e-06 
   36       1.242063995821e+03       4.291792582879e-02       3.888406568863e-04       1.994350938241e+00       1.440569137708e-07       1.176318522834e-03      -1.086980578403e-06 
   37       1.261393062339e+03       4.709681268293e-02       4.107458564961e-04       1.961428483801e+00       1.438711719403e-07       1.147026417304e-03      -1.053470855006e-06 
   38       1.280985814085e+03       5.153748218434e-02       4.332624265867e-04       1.916680737470e+00       1.436414149085e-07       1.120074335687e-03      -9.676438883228e-07 
   39       1.300835576770e+03       5.624451376095e-02       4.563909329517e-04       1.860285587096e+00       1.434045142790e-07       1.095194092409e-03      -8.599260886180e-07 
   40       1.320886237364e+03       6.122177429562e-02       4.801319191759e-04       1.792565790118e+00       1.431467943770e-07       1.071558037826e-03      -7.724710067798e-07 
   41       1.341064517994e+03       6.647310374319e-02       5.044858742763e-04       1.713850452437e+00       1.428197806016e-07       1.048093988410e-03      -7.478590172315e-07 
   42       1.361401337052e+03       7.200475002091e-02       5.294531199938e-04       1.623984633742e+00       1.424467483789e-07       1.024873355457e-03      -7.845139708770e-07 
   43       1.381941620651e+03       7.782365001196e-02       5.550338888846e-04       1.522674524260e+00       1.420539120021e-07       1.002220823407e-03      -8.624555614133e-07 
   44       1.402708137806e+03       8.393677135294e-02       5.812283536862e-04       1.409619240463e+00       1.416337679537e-07       9.803274924642e-04      -9.533824228661e-07 
   45       1.423707264935e+03       9.035037440247e-02       6.080365877754e-04       1.284506609463e+00       1.411577226467e-07       9.592738999382e-04      -1.027589437013e-06 
   46       1.444953982246e+03       9.706752448260e-02       6.354584350416e-04       1.147002715496e+00       1.406507089321e-07       9.391851104243e-04      -1.081100140812e-06 
   47       1.466450273414e+03       1.040898435126e-01       6.634935992363e-04       9.967565601547e-01       1.401418010921e-07       9.200933893134e-04      -1.118729029055e-06 
   48       1.488175736486e+03       1.114181506595e-01       6.921416758060e-04       8.334007618896e-01       1.396391684297e-07       9.018668024416e-04      -1.147342131688e-06 
   49       1.510085657197e+03       1.190524240537e-01       7.214021485765e-04       6.565498350475e-01       1.391237347822e-07       8.841825222474e-04      -1.176102308905e-06 
   50       1.532131835056e+03       1.269924160296e-01       7.512743837874e-04       4.658441372397e-01       1.385615755861e-07       8.666520606065e-04      -1.214399868155e-06 
   51       1.554336195843e+03       1.352397845427e-01       7.817576179793e-04       2.610997672138e-01       1.379671423599e-07       8.493259996389e-04      -1.264015817215e-06 
   52       1.576733830006e+03       1.437964741248e-01       8.128509610870e-04       4.219638028666e-02       1.373612177189e-07       8.323434113196e-04      -1.324252137952e-06 
   53       1.599351150617e+03       1.526641055746e-01       8.445533954435e-04      -1.909645058238e-01       1.367510171215e-07       8.157865141717e-04      -1.393938562617e-06 
   54       1.622205037409e+03       1.618439684276e-01       8.768637723386e-04      -4.384590828576e-01       1.361264672375e-07       7.996706132731e-04      -1.471377183272e-06 
   55       1.645305199068e+03       1.713368765927e-01       9.097808862223e-04      -7.003460934087e-01       1.354688587955e-07       7.839759773899e-04      -1.554445380831e-06 
   56       1.668663908258e+03       1.811427105174e-01       9.433037267790e-04      -9.766837443560e-01       1.347921538314e-07       7.687827568196e-04      -1.641088381947e-06 
   57       1.692287185698e+03       1.912607480970e-01       9.774312834477e-04      -1.267516245168e+00       1.341144810783e-07       7.541671516942e-04      -1.728907593484e-06 
   58       1.716171079116e+03       2.016897789627e-01       1.012162472859e-03      -1.572868688502e+00       1.334450450213e-07       7.401565414476e-04      -1.814971701297e-06 
   59       1.740300932676e+03       2.124280916196e-01       1.047496138419e-03      -1.892746827372e+00       1.327818374449e-07       7.267223066629e-04      -1.895770020101e-06 
   60       1.764650656397e+03       2.234734605863e-01       1.083431049895e-03      -2.227136852310e+00       1.321091401251e-07       7.137723427364e-04      -1.967164242965e-06 
   61       1.789193806024e+03       2.348229027081e-01       1.119966043823e-03      -2.576004197632e+00       1.314058834601e-07       7.011932647315e-04      -2.025261474270e-06 
   62       1.813941381603e+03       2.464719112767e-01       1.157100482507e-03      -2.939290151236e+00       1.306818293434e-07       6.890121350552e-04      -2.069497492012e-06 
   63       1.838911255397e+03       2.584150263957e-01       1.194833897778e-03      -3.316914084947e+00       1.299524983253e-07       6.772749374962e-04      -2.100495828465e-06 
   64       1.864116761312e+03       2.706460308514e-01       1.233165863235e-03      -3.708774109655e+00       1.292283111644e-07       6.659974944243e-04      -2.119268088099e-06 
   65       1.889566339062e+03       2.831579299276e-01       1.272095998294e-03      -4.114746821670e+00       1.285133282920e-07       6.551615085792e-04      -2.127251259087e-06 
   66       1.915263178330e+03       2.959429312204e-01       1.311623972250e-03      -4.534687049084e+00       1.278038833640e-07       6.447104514551e-04      -2.126346281331e-06 
   67       1.941204862923e+03       3.089924244536e-01       1.351749508317e-03      -4.968427598130e+00       1.270871075267e-07       6.345452982822e-04      -2.118957871020e-06 
   68       1.967387488733e+03       3.222976770255e-01       1.392472451020e-03      -5.415783918417e+00       1.263473114158e-07       6.245601709131e-04      -2.107543779595e-06 
   69       1.993819781937e+03       3.358521294271e-01       1.433792975131e-03      -5.876569763306e+00       1.255919978329e-07       6.147721926711e-04      -2.093006810597e-06 
   70       2.020511215410e+03       3.496495308123e-01       1.475711426540e-03      -6.350584261668e+00       1.248333537490e-07       6.052229074201e-04      -2.075890655425e-06 
   71       2.047467550958e+03       3.636832625722e-01       1.518228268243e-03      -6.837607154223e+00       1.240805199144e-07       5.959399109492e-04      -2.056835891631e-06 
   72       2.074690597891e+03       3.779463364553e-01       1.561344086017e-03      -7.337398665700e+00       1.233388878308e-07       5.869350722684e-04      -2.036586149791e-06 
   73       2.102177971607e+03       3.924313926880e-01       1.605059594092e-03      -7.849699377000e+00       1.226093430622e-07       5.782026912480e-04      -2.015994435088e-06 
   74       2.129922852168e+03       4.071306980943e-01       1.649375640819e-03      -8.374230097356e+00       1.218874533410e-07       5.697175925997e-04      -1.996029603633e-06 
   75       2.157913742884e+03       4.220361442165e-01       1.694293214349e-03      -8.910691736497e+00       1.211625999194e-07       5.614331562028e-04      -1.977782993501e-06 
   76       2.186139498116e+03       4.371389739772e-01       1.739813368911e-03      -9.458776835055e+00       1.204226772883e-07       5.532997970372e-04      -1.962283188881e-06 
   77       2.214605998864e+03       4.524289082781e-01       1.785936975596e-03      -1.001820686585e+01       1.196723866803e-07       5.453309282958e-04      -1.949865860110e-06 
   78       2.243322093571e+03       4.678948559771e-01       1.832664936220e-03      -1.058870153401e+01       1.189198281333e-07       5.375512467807e-04      -1.940644726111e-06 
   79       2.272294467447e+03       4.835251638910e-01       1.879998262669e-03      -1.116996783160e+01       1.181710574552e-07       5.299768575329e-04      -1.934684033351e-06 
   80       2.301527509097e+03       4.993076093490e-01       1.927938080936e-03      -1.176170014884e+01       1.174296769921e-07       5.226143138081e-04      -1.931993529905e-06 
   81       2.331023177155e+03       5.152293927464e-01       1.976485635170e-03      -1.236358038534e+01       1.166963985707e-07       5.154596263892e-04      -1.932523285410e-06 
   82       2.360780866906e+03       5.312771300985e-01       2.025642291719e-03      -1.297527806130e+01       1.159685778968e-07       5.084972422328e-04      -1.936158356908e-06 
   83       2.390797276923e+03       5.474368455942e-01       2.075409543175e-03      -1.359645042873e+01       1.152397196891e-07       5.016989924519e-04      -1.942713300582e-06 
   84       2.421068599570e+03       5.636944026150e-01       2.125788986570e-03      -1.422673711809e+01       1.145025958652e-07       4.950353107013e-04      -1.951936492315e-06 
   85       2.451597801921e+03       5.800368952026e-01       2.176782244957e-03      -1.486574281481e+01       1.137610234371e-07       4.885145584616e-04      -1.963537083462e-06 
   86       2.482388312948e+03       5.964514746872e-01       2.228391040180e-03      -1.551305190141e+01       1.130209753007e-07       4.821514472336e-04      -1.977154401162e-06 
   87       2.513441714037e+03       6.129249316562e-01       2.280617221131e-03      -1.616823368594e+01       1.122870359413e-07       4.759550506760e-04      -1.992343085761e-06 
   88       2.544757644671e+03       6.294436958767e-01       2.333462767353e-03      -1.683084242134e+01       1.115621523590e-07       4.699282488578e-04      -2.008567358116e-06 
   89       2.576333708117e+03       6.459938362185e-01       2.386929792652e-03      -1.750041732480e+01       1.108473696820e-07       4.640671565267e-04      -2.025195144673e-06 
   90       2.608165377112e+03       6.625610605771e-01       2.441020548709e-03      -1.817648259716e+01       1.101415511095e-07       4.583605353921e-04      -2.041492060337e-06 
   91       2.640245899553e+03       6.791307157964e-01       2.495737428690e-03      -1.885854744229e+01       1.094410818255e-07       4.527891904245e-04      -2.056615249107e-06 
   92       2.672566204175e+03       6.956877875918e-01       2.551082970852e-03      -1.954610608648e+01       1.087395565242e-07       4.473253501700e-04      -2.069607082502e-06 
   93       2.705117583654e+03       7.122171575000e-01       2.607059951882e-03      -2.023864732835e+01       1.080304160730e-07       4.419421305104e-04      -2.079611845853e-06 
   94       2.737900410355e+03       7.287044181032e-01       2.663671675111e-03      -2.093568478961e+01       1.073165303322e-07       4.366458015675e-04      -2.086596433009e-06 
   95       2.770916563153e+03       7.451351808429e-01       2.720921732522e-03      -2.163673127105e+01       1.066028541132e-07       4.314495963995e-04      -2.090779715238e-06 
   96       2.804166711385e+03       7.614948333218e-01       2.778813923668e-03      -2.234128977551e+01       1.058935802753e-07       4.263639870946e-04      -2.092425940779e-06 
   97       2.837650258665e+03       7.777685427554e-01       2.837352260508e-03      -2.304885365817e+01       1.051920055080e-07       4.213964188617e-04      -2.091847304000e-06 
   98       2.871365286692e+03       7.939412594227e-01       2.896540972254e-03      -2.375890677667e+01       1.045003884997e-07       4.165510370322e-04      -2.089406568890e-06 
   99       2.905308499063e+03       8.099977201176e-01       2.956384510209e-03      -2.447092364137e+01       1.038198003268e-07       4.118284069743e-04      -2.085519746885e-06 
  100       2.939475165080e+03       8.259224515992e-01       3.016887552612e-03      -2.518436956553e+01       1.031499669017e-07       4.072252269190e-04      -2.080658829019e-06 
  101       2.973859063567e+03       8.416997740440e-01       3.078055009477e-03      -2.589870081554e+01       1.024891033163e-07       4.027340336980e-04      -2.075354572405e-06 
  102       3.008452426679e+03       8.573138044957e-01       3.139892027435e-03      -2.661336476108e+01       1.018337399174e-07       3.983429013929e-04      -2.070199341049e-06 
  103       3.043245883708e+03       8.727484603174e-01       3.202403994578e-03      -2.732780002539e+01       1.011785399510e-07       3.940351328976e-04      -2.065850000994e-06 
  104       3.078230380261e+03       8.879878487918e-01       3.265596363895e-03      -2.804144061816e+01       1.005182754059e-07       3.897948360727e-04      -2.062889926405e-06 
  105       3.113403352036e+03       9.030174884309e-01       3.329474085996e-03      -2.875372864665e+01       9.985480080392e-08       3.856256423121e-04      -2.061376491953e-06 
  106       3.148763284162e+03       9.178232598497e-01       3.394042108429e-03      -2.946410360973e+01       9.919158767220e-08       3.815351807711e-04      -2.061207657922e-06 
  107       3.184307776247e+03       9.323910419498e-01       3.459305553051e-03      -3.017199876006e+01       9.853164961260e-08       3.775293796979e-04      -2.062253351857e-06 
