# total [l(l+1)/2pi] C_l's (units: [microK]^2)
# for l=2 to 3000, i.e. number of multipoles equal to 2999
#
# -> if you don't want to see such a header, set 'headers' to 'no' in input file
# -> for CMB lensing (d), these are C_l^dd for the deflection field.
#    Remember the conversion factors:
#    C_l^dd (deflection) = l(l+1) C_l^phi-phi
#    C_l^gg (shear/convergence) = 1/4 (l(l+1))^2 C_l^phi-phi
#
# 1:l     2:TT                     3:EE                     4:BB                     5:TE                     6:dd                     7:dT                     8:dE                 
    2       1.156067384183e+03       3.965331067548e-02       0.000000000000e+00       3.017146071922e+00       5.143163783248e-08       3.476107703913e-03      -1.439073225000e-05 
    3       1.082024723314e+03       5.009250583648e-02       0.000000000000e+00       3.403753120717e+00       6.337256812774e-08       3.466739045686e-03      -1.528254444202e-05 
    4       1.015240791688e+03       4.258822726041e-02       0.000000000000e+00       3.176986299684e+00       7.337261174752e-08       3.376336045961e-03      -1.275152559577e-05 
    5       9.655592272325e+02       2.787392117516e-02       0.000000000000e+00       2.691544753364e+00       8.207630281353e-08       3.256818907691e-03      -8.501030777267e-06 
    6       9.311998623464e+02       1.529820523404e-02       0.000000000000e+00       2.149828694125e+00       8.971217014182e-08       3.127807267224e-03      -3.941014102388e-06 
    7       9.084198837844e+02       8.178830707393e-03       0.000000000000e+00       1.669066112242e+00       9.646496988428e-08       2.998853567614e-03      -1.375472934243e-07 
    8       8.944542513400e+02       5.282570363713e-03       0.000000000000e+00       1.300413706113e+00       1.024787673139e-07       2.875204459625e-03       2.297832836231e-06 
    9       8.869964038129e+02       4.226952689103e-03       0.000000000000e+00       1.054409647748e+00       1.078504455280e-07       2.759521816292e-03       3.216586990657e-06 
   10       8.841218964276e+02       3.554718730881e-03       0.000000000000e+00       9.184121383265e-01       1.126415856349e-07       2.652131365240e-03       2.856551503583e-06 
   11       8.850893347762e+02       2.947352690428e-03       0.000000000000e+00       8.680120513992e-01       1.141729572933e-07       2.564006865695e-03       1.710919054416e-06 
   12       8.887700855958e+02       2.551286685742e-03       0.000000000000e+00       8.756471593222e-01       1.178757099010e-07       2.463159206667e-03       2.993210184296e-07 
   13       8.946303955505e+02       2.434555762935e-03       0.000000000000e+00       9.170863081080e-01       1.211873298335e-07       2.375186542392e-03      -8.993272883348e-07 
   14       9.021256836664e+02       2.503576735054e-03       0.000000000000e+00       9.744343936415e-01       1.241510907202e-07       2.283998456641e-03      -1.622429713807e-06 
   15       9.112169703410e+02       2.658662431890e-03       0.000000000000e+00       1.036794707195e+00       1.268032841892e-07       2.201563317058e-03      -1.781774146649e-06 
   16       9.214380911916e+02       2.895221122185e-03       0.000000000000e+00       1.099293977414e+00       1.291766227294e-07       2.124379201954e-03      -1.485125500377e-06 
   17       9.327332669324e+02       3.269505886470e-03       0.000000000000e+00       1.161569179286e+00       1.312986374711e-07       2.050946084811e-03      -9.479521086298e-07 
   18       9.447208097939e+02       3.823030945362e-03       0.000000000000e+00       1.225543676733e+00       1.331415640040e-07       1.980601836963e-03      -4.193696607809e-07 
   19       9.574852441621e+02       4.553920550103e-03       0.000000000000e+00       1.293292647739e+00       1.348800413044e-07       1.915417412781e-03      -5.308203494650e-08 
   20       9.708704733794e+02       5.441043769739e-03       0.000000000000e+00       1.366513422469e+00       1.363704978918e-07       1.853844897846e-03       3.643226647639e-08 
   21       9.849221972949e+02       6.477908304779e-03       0.000000000000e+00       1.444819145194e+00       1.377036356592e-07       1.795925572402e-03      -1.357692128945e-07 
   22       9.994967145514e+02       7.659850850572e-03       0.000000000000e+00       1.526347697341e+00       1.388535251194e-07       1.739586649564e-03      -4.636495520885e-07 
   23       1.014581658836e+03       8.985311307970e-03       0.000000000000e+00       1.607718419971e+00       1.398928961122e-07       1.685423357672e-03      -8.367077366114e-07 
   24       1.030051134719e+03       1.045246918800e-02       0.000000000000e+00       1.684739823149e+00       1.407719831773e-07       1.633424591438e-03      -1.124567221846e-06 
   25       1.045984812576e+03       1.206230134562e-02       0.000000000000e+00       1.755030750632e+00       1.415472953520e-07       1.584667713488e-03      -1.264395778077e-06 
   26       1.062382609596e+03       1.381897714455e-02       0.000000000000e+00       1.816869798387e+00       1.421965123048e-07       1.539229633459e-03      -1.231169264488e-06 
   27       1.079138696325e+03       1.574089839531e-02       0.000000000000e+00       1.869715865955e+00       1.427475449018e-07       1.496340318845e-03      -1.072231196665e-06 
   28       1.096052828331e+03       1.785075203292e-02       0.000000000000e+00       1.913652736062e+00       1.431629655362e-07       1.454151606511e-03      -8.745758149276e-07 
   29       1.113202191954e+03       2.016070178196e-02       0.000000000000e+00       1.949394487446e+00       1.435184866195e-07       1.413386979778e-03      -6.907392252596e-07 
   30       1.130668829189e+03       2.267949415072e-02       0.000000000000e+00       1.978177515219e+00       1.438353465544e-07       1.374981959158e-03      -5.732144927042e-07 
   31       1.148450975588e+03       2.541503260717e-02       0.000000000000e+00       2.001215279271e+00       1.440308966091e-07       1.339045860058e-03      -5.737054829699e-07 
   32       1.166566969112e+03       2.837312077188e-02       0.000000000000e+00       2.017896634604e+00       1.441514401763e-07       1.305427832210e-03      -6.765024266047e-07 
   33       1.184968615132e+03       3.155808656860e-02       0.000000000000e+00       2.026895533599e+00       1.442262792265e-07       1.273057288556e-03      -8.277949142496e-07 
   34       1.203555571180e+03       3.497406246216e-02       0.000000000000e+00       2.026781661703e+00       1.442178430140e-07       1.240302103646e-03      -9.617787655779e-07 
   35       1.222360436007e+03       3.862866522379e-02       0.000000000000e+00       2.016603221247e+00       1.441590363577e-07       1.207691866326e-03      -1.052976776271e-06 
   36       1.241414958379e+03       4.253056223712e-02       0.000000000000e+00       1.995491343799e+00       1.440569163443e-07       1.176318712365e-03      -1.086980596791e-06 
   37       1.260713165989e+03       4.668793846398e-02       0.000000000000e+00       1.962668698064e+00       1.438711744995e-07       1.147026665245e-03      -1.053470881030e-06 
   38       1.280274585915e+03       5.110655337800e-02       0.000000000000e+00       1.918025051192e+00       1.436414174598e-07       1.120074601006e-03      -9.676439174529e-07 
   39       1.300092570825e+03       5.579099263486e-02       0.000000000000e+00       1.861738085772e+00       1.434045168274e-07       1.095194346028e-03      -8.599261186405e-07 
   40       1.320111037092e+03       6.074512972445e-02       0.000000000000e+00       1.794130313063e+00       1.431467969236e-07       1.071558268623e-03      -7.724710387737e-07 
   41       1.340256737161e+03       6.597281163052e-02       0.000000000000e+00       1.715530547640e+00       1.428197831420e-07       1.048094204770e-03      -7.478590555264e-07 
   42       1.360560615021e+03       7.148029385317e-02       0.000000000000e+00       1.625783502857e+00       1.424467509087e-07       1.024873568681e-03      -7.845140189994e-07 
   43       1.381067621769e+03       7.727452133205e-02       0.000000000000e+00       1.524594971119e+00       1.420539145182e-07       1.002221041964e-03      -8.624556203406e-07 
   44       1.401800552409e+03       8.336247020760e-02       0.000000000000e+00       1.411663619693e+00       1.416337704545e-07       9.803277206577e-04      -9.533824901803e-07 
   45       1.422765808285e+03       8.975040996106e-02       0.000000000000e+00       1.286676776283e+00       1.411577251319e-07       9.592741375312e-04      -1.027589506853e-06 
   46       1.443978386391e+03       9.644141621254e-02       0.000000000000e+00       1.149299984274e+00       1.406507114020e-07       9.391853561209e-04      -1.081100206905e-06 
   47       1.465440284120e+03       1.034371219780e-01       0.000000000000e+00       9.991816533734e-01       1.401418035467e-07       9.200936417918e-04      -1.118729085859e-06 
   48       1.487131112052e+03       1.107383581871e-01       0.000000000000e+00       8.359537543180e-01       1.396391708684e-07       9.018670603950e-04      -1.147342174793e-06 
   49       1.509006167212e+03       1.183451154169e-01       0.000000000000e+00       6.592300960763e-01       1.391237372028e-07       8.841827844312e-04      -1.176102335486e-06 
   50       1.531017259581e+03       1.262571593144e-01       0.000000000000e+00       4.686502840530e-01       1.385615779845e-07       8.666523253159e-04      -1.214399877197e-06 
   51       1.553186326149e+03       1.344761625799e-01       0.000000000000e+00       2.640296582355e-01       1.379671447334e-07       8.493262621866e-04      -1.264015808822e-06 
   52       1.575548468075e+03       1.430040855402e-01       0.000000000000e+00       4.524707609417e-02       1.373612200670e-07       8.323436627218e-04      -1.324252113294e-06 
   53       1.598130108157e+03       1.518425657108e-01       0.000000000000e+00      -1.877967945371e-01       1.367510194464e-07       8.157867402662e-04      -1.393938524142e-06 
   54       1.620948134837e+03       1.609929102913e-01       0.000000000000e+00      -4.351790485677e-01       1.361264695448e-07       7.996707937575e-04      -1.471377134933e-06 
   55       1.644012265261e+03       1.704559516614e-01       0.000000000000e+00      -6.969593660178e-01       1.354688610937e-07       7.839760873219e-04      -1.554445327950e-06 
   56       1.667334782938e+03       1.802315890243e-01       0.000000000000e+00      -9.731968599613e-01       1.347921561292e-07       7.687827767918e-04      -1.641088329750e-06 
   57       1.690921719770e+03       1.903191197521e-01       0.000000000000e+00      -1.263936666237e+00       1.341144833833e-07       7.541670723789e-04      -1.728907546516e-06 
   58       1.714769134255e+03       2.007173538462e-01       0.000000000000e+00      -1.569204843353e+00       1.334450473391e-07       7.401563660763e-04      -1.814971663146e-06 
   59       1.738862380906e+03       2.114246010940e-01       0.000000000000e+00      -1.889008150106e+00       1.327818397775e-07       7.267220537301e-04      -1.895769993105e-06 
   60       1.763175379665e+03       2.224386582271e-01       0.000000000000e+00      -2.223333823210e+00       1.321091424705e-07       7.137720489352e-04      -1.967164227885e-06 
   61       1.787681698640e+03       2.337565643644e-01       0.000000000000e+00      -2.572148363330e+00       1.314058858113e-07       7.011929830132e-04      -2.025261470398e-06 
   62       1.812392362047e+03       2.453738322499e-01       0.000000000000e+00      -2.935394077857e+00       1.306818316930e-07       6.890119155631e-04      -2.069497498815e-06 
   63       1.837325270856e+03       2.572850208834e-01       0.000000000000e+00      -3.312991363979e+00       1.299525006667e-07       6.772748203255e-04      -2.100495846151e-06 
   64       1.862493789626e+03       2.694839322134e-01       0.000000000000e+00      -3.704839382981e+00       1.292283134919e-07       6.659975067744e-04      -2.119268117786e-06 
   65       1.887906390752e+03       2.819635909421e-01       0.000000000000e+00      -4.110815806408e+00       1.285133306014e-07       6.551616616575e-04      -2.127251302979e-06 
   66       1.913566298704e+03       2.947162243311e-01       0.000000000000e+00      -4.530776562226e+00       1.278038856527e-07       6.447107371251e-04      -2.126346342911e-06 
   67       1.939471134284e+03       3.077332420066e-01       0.000000000000e+00      -4.964555580983e+00       1.270871097945e-07       6.345456854472e-04      -2.118957955256e-06 
   68       1.965617032198e+03       3.210059303630e-01       0.000000000000e+00      -5.411969459514e+00       1.263473136646e-07       6.245606072243e-04      -2.107543892539e-06 
   69       1.992012757858e+03       3.345277443025e-01       0.000000000000e+00      -5.872833116793e+00       1.255920000651e-07       6.147726247360e-04      -2.093006956902e-06 
   70       2.018667825072e+03       3.482924457175e-01       0.000000000000e+00      -6.346946868940e+00       1.248333559671e-07       6.052232876097e-04      -2.075890837338e-06 
   71       2.045588038775e+03       3.622934280951e-01       0.000000000000e+00      -6.834091666585e+00       1.240805221211e-07       5.959401992307e-04      -2.056836108532e-06 
   72       2.072775253687e+03       3.765237145991e-01       0.000000000000e+00      -7.334028966795e+00       1.233388900281e-07       5.869352381881e-04      -2.036586397690e-06 
   73       2.100227132961e+03       3.909759561512e-01       0.000000000000e+00      -7.846500605010e+00       1.226093452518e-07       5.782027160680e-04      -2.015994706094e-06 
   74       2.127936906845e+03       4.056424295124e-01       0.000000000000e+00      -8.371228666969e+00       1.218874555239e-07       5.697174715947e-04      -1.996029885379e-06 
   75       2.155893131325e+03       4.205150353650e-01       0.000000000000e+00      -8.907915360637e+00       1.211626020955e-07       5.614329011195e-04      -1.977783268543e-06 
   76       2.184084710932e+03       4.355850249827e-01       0.000000000000e+00      -9.456254541371e+00       1.204226794563e-07       5.532994351545e-04      -1.962283435498e-06 
   77       2.212517558057e+03       4.508421269396e-01       0.000000000000e+00      -1.001596899683e+01       1.196723888391e-07       5.453304898195e-04      -1.949866057876e-06 
   78       2.241200547175e+03       4.662752569269e-01       0.000000000000e+00      -1.058677976007e+01       1.189198302818e-07       5.375507610342e-04      -1.940644857923e-06 
   79       2.270140388966e+03       4.818727676739e-01       0.000000000000e+00      -1.116839516855e+01       1.181710595926e-07       5.299763523990e-04      -1.934684086177e-06 
   80       2.299341496911e+03       4.976224414640e-01       0.000000000000e+00      -1.176051097507e+01       1.174296791178e-07       5.226138151266e-04      -1.931993495581e-06 
   81       2.328805853896e+03       5.135114826503e-01       0.000000000000e+00      -1.236281045860e+01       1.166964006845e-07       5.154591573073e-04      -1.932523161488e-06 
   82       2.358532878805e+03       5.295265101721e-01       0.000000000000e+00      -1.297496453522e+01       1.159685799984e-07       5.084968225083e-04      -1.936158147564e-06 
   83       2.388519293124e+03       5.456535500710e-01       0.000000000000e+00      -1.359663186898e+01       1.152397217785e-07       5.016986377079e-04      -1.942713017574e-06 
   84       2.418761312259e+03       5.618784670867e-01       0.000000000000e+00      -1.422745347967e+01       1.145025979428e-07       4.950350320649e-04      -1.951936154137e-06 
   85       2.449261929113e+03       5.781883580499e-01       0.000000000000e+00      -1.486703529607e+01       1.137610255031e-07       4.885143635801e-04      -1.963536708415e-06 
   86       2.480024599005e+03       5.945703768371e-01       0.000000000000e+00      -1.551496290021e+01       1.130209773552e-07       4.821513401634e-04      -1.977154005110e-06 
   87       2.511050929362e+03       6.110113157253e-01       0.000000000000e+00      -1.617080679157e+01       1.122870379841e-07       4.759550313348e-04      -1.992342681581e-06 
   88       2.542340585389e+03       6.274976052879e-01       0.000000000000e+00      -1.683412240539e+01       1.115621543898e-07       4.699283124455e-04      -2.008566955120e-06 
   89       2.573891195741e+03       6.440153142901e-01       0.000000000000e+00      -1.750445013111e+01       1.108473717001e-07       4.640672929124e-04      -2.025194747993e-06 
   90       2.605698258196e+03       6.605501495841e-01       0.000000000000e+00      -1.818131533079e+01       1.101415531138e-07       4.583607284689e-04      -2.041491670269e-06 
   91       2.637755045317e+03       6.770874560052e-01       0.000000000000e+00      -1.886422835745e+01       1.094410838143e-07       4.527894174285e-04      -2.056614860420e-06 
   92       2.670052510129e+03       6.936122162669e-01       0.000000000000e+00      -1.955268457352e+01       1.087395584949e-07       4.473255809650e-04      -2.069606683705e-06 
   93       2.702581973452e+03       7.101093057074e-01       0.000000000000e+00      -2.024617385926e+01       1.080304180227e-07       4.419423288542e-04      -2.079611420184e-06 
   94       2.735343853126e+03       7.265643005831e-01       0.000000000000e+00      -2.094421073397e+01       1.073165322578e-07       4.366459329159e-04      -2.086595965101e-06 
   95       2.768340079368e+03       7.429627917149e-01       0.000000000000e+00      -2.164630882012e+01       1.066028560120e-07       4.314496305753e-04      -2.090779193312e-06 
   96       2.801571374687e+03       7.592901438179e-01       0.000000000000e+00      -2.235197190364e+01       1.058935821449e-07       4.263638991133e-04      -2.092425357213e-06 
   97       2.835037197741e+03       7.755314988949e-01       0.000000000000e+00      -2.306069408253e+01       1.051920073465e-07       4.213961898042e-04      -2.091846655941e-06 
   98       2.868735687191e+03       7.916717796305e-01       0.000000000000e+00      -2.377195991564e+01       1.045003903055e-07       4.165506549675e-04      -2.089405858891e-06 
   99       2.902663605551e+03       8.076956927849e-01       0.000000000000e+00      -2.448524457121e+01       1.038198020988e-07       4.118278679310e-04      -2.085518983579e-06 
  100       2.936816283045e+03       8.235877325874e-01       0.000000000000e+00      -2.520001397563e+01       1.031499686395e-07       4.072245359085e-04      -2.080658027825e-06 
  101       2.971187561462e+03       8.393321841309e-01       0.000000000000e+00      -2.591572496208e+01       1.024891050202e-07       4.027332057892e-04      -2.075353756270e-06 
  102       3.005769738003e+03       8.549131267650e-01       0.000000000000e+00      -2.663182541917e+01       1.018337415883e-07       3.983419628406e-04      -2.070198541227e-06 
  103       3.040553509142e+03       8.703144374903e-01       0.000000000000e+00      -2.734775443964e+01       1.011785415906e-07       3.940341223240e-04      -2.065849257858e-06 
  104       3.075529883826e+03       8.855201799652e-01       0.000000000000e+00      -2.806294646411e+01       1.005182770168e-07       3.897938027517e-04      -2.062889287681e-06 
  105       3.110696338359e+03       9.005158240634e-01       0.000000000000e+00      -2.877684402968e+01       9.985480238872e-08       3.856246349639e-04      -2.061376002521e-06 
  106       3.146051392156e+03       9.152871981547e-01       0.000000000000e+00      -2.948888702863e+01       9.919158923339e-08       3.815342440320e-04      -2.061207356415e-06 
  107       3.181592678542e+03       9.298201257432e-01       0.000000000000e+00      -3.019850905741e+01       9.853165115249e-08       3.775285533360e-04      -2.062253269684e-06 
