# Matter power spectrum P(k) at redshift z=0
# for k=1.00899e-05 to 311.717 h/Mpc,
# number of wavenumbers equal to 732
#    1:k (h/Mpc)              2:P (Mpc/h)^3        
       1.008985870728e-05       5.859194361600e+01 
       2.255719778763e-05       1.268402735672e+02 
       3.506555438942e-05       1.937226026448e+02 
       4.764645186636e-05       2.600109923133e+02 
       6.033190178577e-05       3.261303011726e+02 
       7.315467139448e-05       3.923900259594e+02 
       8.614855911287e-05       4.590489596696e+02 
       9.934868150699e-05       5.263412347014e+02 
       1.127917752162e-04       5.944895496812e+02 
       1.265165173439e-04       6.637129363338e+02 
       1.405638678349e-04       7.342319934015e+02 
       1.549774373317e-04       8.062728002878e+02 
       1.698038839022e-04       8.800702166642e+02 
       1.850933417935e-04       9.558706008485e+02 
       2.008998849484e-04       1.033934690015e+03 
       2.172820273174e-04       1.114540051033e+03 
       2.343032609108e-04       1.197983680693e+03 
       2.520326309069e-04       1.284584623698e+03 
       2.705453447934e-04       1.374686490189e+03 
       2.899234092336e-04       1.468660040065e+03 
       3.102562838690e-04       1.566905589540e+03 
       3.316415352992e-04       1.669855382678e+03 
       3.541854667209e-04       1.777975505318e+03 
       3.780036889183e-04       1.891767518316e+03 
       4.032215863409e-04       2.011768897750e+03 
       4.299746180079e-04       2.138553500633e+03 
       4.584083774905e-04       2.272729058924e+03 
       4.886783204611e-04       2.414934936102e+03 
       5.209490543965e-04       2.565835362733e+03 
       5.553930762832e-04       2.726112032424e+03 
       5.921888451566e-04       2.896452240438e+03 
       6.315180925584e-04       3.077533864751e+03 
       6.735623113410e-04       3.270007224253e+03 
       7.184984261710e-04       3.474472746009e+03 
       7.664937385462e-04       3.691456980938e+03 
       8.177003499079e-04       3.921386479983e+03 
       8.722493850187e-04       4.164561821808e+03 
       9.302454423433e-04       4.421134593519e+03 
       9.917617617239e-04       4.691088614460e+03 
       1.056836596931e-03       4.974228229461e+03 
       1.125471197341e-03       5.270175103231e+03 
       1.197629643439e-03       5.578374751363e+03 
       1.273240570655e-03       5.898145958154e+03 
       1.352200596440e-03       6.228639330313e+03 
       1.434379081275e-03       6.568874902416e+03 
       1.519623739800e-03       6.917817654317e+03 
       1.607766587951e-03       7.274386466637e+03 
       1.698629758411e-03       7.637486029902e+03 
       1.792030817038e-03       8.006031040642e+03 
       1.887787337697e-03       8.378967955102e+03 
       1.985720615951e-03       8.755291527377e+03 
       2.085658505077e-03       9.134057323996e+03 
       2.187437432375e-03       9.514388818069e+03 
       2.290903699119e-03       9.895480751186e+03 
       2.395914188032e-03       1.027660062849e+04 
       2.502336604421e-03       1.065708663670e+04 
       2.610049367626e-03       1.103634626898e+04 
       2.718941253678e-03       1.141384987574e+04 
       2.828910872076e-03       1.178912845554e+04 
       2.939866041956e-03       1.216176823461e+04 
       3.051723117132e-03       1.253140415716e+04 
       3.164406296083e-03       1.289771850662e+04 
       3.277846942195e-03       1.326043229310e+04 
       3.391982931079e-03       1.361930470614e+04 
       3.506758035485e-03       1.397412741275e+04 
       3.622121353578e-03       1.432472124587e+04 
       3.738026783062e-03       1.467093282544e+04 
       3.854432541288e-03       1.501263454228e+04 
       3.971300729992e-03       1.534971659929e+04 
       4.088596942327e-03       1.568209056985e+04 
       4.206289909316e-03       1.600968097058e+04 
       4.324351182603e-03       1.633243358410e+04 
       4.442754850300e-03       1.665029925870e+04 
       4.561477282816e-03       1.696323725229e+04 
       4.680496905682e-03       1.727119133913e+04 
       4.799793996599e-03       1.757421381175e+04 
       4.919350504153e-03       1.787224418424e+04 
       5.039149885847e-03       1.816539814363e+04 
       5.159176963364e-03       1.845355898171e+04 
       5.279417793139e-03       1.873677413298e+04 
       5.399859550555e-03       1.901503879950e+04 
       5.520490426251e-03       1.928837834903e+04 
       5.641299533186e-03       1.955681246448e+04 
       5.762276823272e-03       1.982037411309e+04 
       5.883413012511e-03       2.007908922420e+04 
       6.004699513698e-03       2.033299921975e+04 
       6.126128375866e-03       2.058212682735e+04 
       6.247692229723e-03       2.082649659607e+04 
       6.369384238452e-03       2.106619533731e+04 
       6.491198053275e-03       2.130120509857e+04 
       6.613127773286e-03       2.153160903215e+04 
       6.735167909108e-03       2.175743277890e+04 
       6.857313349944e-03       2.197866418376e+04 
       6.979559333709e-03       2.219546104286e+04 
       7.101901419889e-03       2.240778595603e+04 
       7.224335464874e-03       2.261568334094e+04 
       7.346857599505e-03       2.281919885470e+04 
       7.469464208611e-03       2.301842990775e+04 
       7.592151912349e-03       2.321336029264e+04 
       7.714917549159e-03       2.340404088293e+04 
       7.837758160187e-03       2.359053937126e+04 
       7.960670975029e-03       2.377287890915e+04 
       8.083653398677e-03       2.395112136114e+04 
       8.206702999544e-03       2.412528819074e+04 
       8.329817498478e-03       2.429544259653e+04 
       8.452994758674e-03       2.446166595526e+04 
       8.576232776388e-03       2.462386152977e+04 
       8.699529672405e-03       2.478221653504e+04 
       8.822883684167e-03       2.493672895263e+04 
       8.946293158530e-03       2.508747169646e+04 
       9.069756545069e-03       2.523447686213e+04 
       9.193272389906e-03       2.537771397603e+04 
       9.316839330006e-03       2.551725975813e+04 
       9.440456087896e-03       2.565319851699e+04 
       9.564121466784e-03       2.578562951074e+04 
       9.687834346044e-03       2.591443566415e+04 
       9.811593677022e-03       2.603964956145e+04 
       9.935398479155e-03       2.616146752990e+04 
       1.005924783637e-02       2.627986816019e+04 
       1.018314089375e-02       2.639495021017e+04 
       1.030707685441e-02       2.650654339432e+04 
       1.043105497663e-02       2.661487580018e+04 
       1.055507457119e-02       2.671994779663e+04 
       1.067913499882e-02       2.682178850778e+04 
       1.080323566797e-02       2.692049920172e+04 
       1.092737603258e-02       2.701590685719e+04 
       1.105155559012e-02       2.710826459915e+04 
       1.117577387969e-02       2.719753924353e+04 
       1.130003048031e-02       2.728376800808e+04 
       1.142432500930e-02       2.736693660708e+04 
       1.154865712075e-02       2.744727723518e+04 
       1.167302650415e-02       2.752448541527e+04 
       1.179743288307e-02       2.759893676579e+04 
       1.192187601394e-02       2.767045369533e+04 
       1.204635568493e-02       2.773906195672e+04 
       1.217087171492e-02       2.780490789831e+04 
       1.229542395248e-02       2.786803517930e+04 
       1.242001227501e-02       2.792848434799e+04 
       1.254463658786e-02       2.798605787357e+04 
       1.266929682359e-02       2.804109484135e+04 
       1.279399294122e-02       2.809343860670e+04 
       1.291872492557e-02       2.814321296972e+04 
       1.304349278665e-02       2.819047979865e+04 
       1.316829655908e-02       2.823505424750e+04 
       1.329313630159e-02       2.827719563461e+04 
       1.341801209651e-02       2.831685980217e+04 
       1.354292404935e-02       2.835408669410e+04 
       1.366787228842e-02       2.838887179272e+04 
       1.379285696441e-02       2.842128710510e+04 
       1.391787825013e-02       2.845135887079e+04 
       1.404293634015e-02       2.847910060446e+04 
       1.416803145059e-02       2.850463635296e+04 
       1.429316381886e-02       2.852775062174e+04 
       1.441833370345e-02       2.854868306557e+04 
       1.454354138377e-02       2.856742873501e+04 
       1.466878716000e-02       2.858397942654e+04 
       1.479407135296e-02       2.859840353003e+04 
       1.491939430397e-02       2.861079800418e+04 
       1.504475637487e-02       2.862092509533e+04 
       1.517015794786e-02       2.862905793529e+04 
       1.529559942554e-02       2.863525701732e+04 
       1.542108123086e-02       2.863934110360e+04 
       1.554660380716e-02       2.864144503174e+04 
       1.567216761816e-02       2.864154906073e+04 
       1.579777314806e-02       2.863976050482e+04 
       1.592342090158e-02       2.863609885477e+04 
       1.604911140403e-02       2.863058124303e+04 
       1.617484520145e-02       2.862319432348e+04 
       1.630062286073e-02       2.861397101439e+04 
       1.642644496973e-02       2.860297761988e+04 
       1.655231213744e-02       2.859020308425e+04 
       1.667822499420e-02       2.857571030403e+04 
       1.680418419184e-02       2.855945243279e+04 
       1.693019040389e-02       2.854152661041e+04 
       1.705624432587e-02       2.852192164487e+04 
       1.718234667545e-02       2.850070045401e+04 
       1.730849819277e-02       2.847785506267e+04 
       1.743469964069e-02       2.845337229203e+04 
       1.756095180508e-02       2.842735269400e+04 
       1.768725549515e-02       2.839978390595e+04 
       1.781361154375e-02       2.837068037472e+04 
       1.794002080772e-02       2.834007881534e+04 
       1.806648416827e-02       2.830800606567e+04 
       1.819300253131e-02       2.827457812207e+04 
       1.831957682788e-02       2.823954930161e+04 
       1.844620801457e-02       2.820318056457e+04 
       1.857289707388e-02       2.816544126554e+04 
       1.869964501473e-02       2.812634871312e+04 
       1.882645287291e-02       2.808592899939e+04 
       1.895332171153e-02       2.804413792353e+04 
       1.908025262153e-02       2.800110201806e+04 
       1.920724672222e-02       2.795677464456e+04 
       1.933430516177e-02       2.791122657963e+04 
       1.946142911781e-02       2.786442159573e+04 
       1.958861979797e-02       2.781640826406e+04 
       1.971587844047e-02       2.776721801125e+04 
       1.984320631477e-02       2.771684781029e+04 
       1.997060472217e-02       2.766535625978e+04 
       2.009807499648e-02       2.761273375303e+04 
       2.022561850468e-02       2.755904183109e+04 
       2.035323664764e-02       2.750420248740e+04 
       2.048093086082e-02       2.744833849424e+04 
       2.060870261506e-02       2.739143270021e+04 
       2.073655341729e-02       2.733348944954e+04 
       2.086448481135e-02       2.727454685724e+04 
       2.099249837882e-02       2.721460486065e+04 
       2.112059573986e-02       2.715374813830e+04 
       2.124877855405e-02       2.709191520350e+04 
       2.137704852135e-02       2.702914224234e+04 
       2.150540738297e-02       2.696559145896e+04 
       2.163385692236e-02       2.690091881073e+04 
       2.176239896618e-02       2.683563324301e+04 
       2.189103538535e-02       2.676933161405e+04 
       2.201976809603e-02       2.670216917290e+04 
       2.214859906080e-02       2.663426788087e+04 
       2.227753028967e-02       2.656557590917e+04 
       2.240656384134e-02       2.649605076695e+04 
       2.253570182430e-02       2.642578830825e+04 
       2.266494639810e-02       2.635479037544e+04 
       2.279429977461e-02       2.628311944869e+04 
       2.292376421933e-02       2.621064729907e+04 
       2.305334205270e-02       2.613749919388e+04 
       2.318303565154e-02       2.606372257531e+04 
       2.331284745046e-02       2.598925666001e+04 
       2.344277994333e-02       2.591413113474e+04 
       2.357283568482e-02       2.583845008408e+04 
       2.370301729198e-02       2.576212291133e+04 
       2.383332744586e-02       2.568511317871e+04 
       2.396376889320e-02       2.560765767660e+04 
       2.409434444816e-02       2.552965212626e+04 
       2.422505699411e-02       2.545092715240e+04 
       2.435590948549e-02       2.537170608394e+04 
       2.448690494972e-02       2.529201568556e+04 
       2.461804648920e-02       2.521182172099e+04 
       2.474933728331e-02       2.513111046681e+04 
       2.488078059058e-02       2.504996686130e+04 
       2.501237975082e-02       2.496834602359e+04 
       2.514413818743e-02       2.488625841572e+04 
       2.527605940970e-02       2.480374917033e+04 
       2.540814701527e-02       2.472079938960e+04 
       2.554040469259e-02       2.463747003286e+04 
       2.567283622353e-02       2.455378546032e+04 
       2.580544548607e-02       2.446966205982e+04 
       2.593823645708e-02       2.438515443919e+04 
       2.607121321517e-02       2.430034804280e+04 
       2.620437994370e-02       2.421520241960e+04 
       2.633774093385e-02       2.412962799670e+04 
       2.647130058782e-02       2.404366132008e+04 
       2.660506342216e-02       2.395770605231e+04 
       2.673903407119e-02       2.387127170222e+04 
       2.687321729059e-02       2.378457140796e+04 
       2.700761796108e-02       2.369755107074e+04 
       2.714224109226e-02       2.361042847984e+04 
       2.727709182663e-02       2.352289508690e+04 
       2.741217544367e-02       2.343514050112e+04 
       2.754749736419e-02       2.334719950060e+04 
       2.768306315477e-02       2.325908603345e+04 
       2.781887853241e-02       2.317063987832e+04 
       2.795494936933e-02       2.308209914865e+04 
       2.809128169802e-02       2.299333161279e+04 
       2.822788171641e-02       2.290437176565e+04 
       2.836475579333e-02       2.281534730241e+04 
       2.850191047415e-02       2.272618434257e+04 
       2.863935248666e-02       2.263673403280e+04 
       2.877708874714e-02       2.254721360489e+04 
       2.891512636683e-02       2.245754718952e+04 
       2.905347265849e-02       2.236781669087e+04 
       2.919213514336e-02       2.227797237287e+04 
       2.933112155838e-02       2.218802414739e+04 
       2.947043986373e-02       2.209790054040e+04 
       2.961009825067e-02       2.200781635743e+04 
       2.975010514976e-02       2.191752493395e+04 
       2.989046923943e-02       2.182729166932e+04 
       3.003119945492e-02       2.173689128498e+04 
       3.017230499766e-02       2.164651439630e+04 
       3.031379534503e-02       2.155601020871e+04 
       3.045568026057e-02       2.146553085658e+04 
       3.059796980475e-02       2.137501711357e+04 
       3.074067434609e-02       2.128444879250e+04 
       3.088380457296e-02       2.119393523041e+04 
       3.102737150585e-02       2.110335621971e+04 
       3.117138651025e-02       2.101271594369e+04 
       3.131586131013e-02       2.092220078445e+04 
       3.146080800219e-02       2.083163417964e+04 
       3.160623907064e-02       2.074095007225e+04 
       3.175216740288e-02       2.065042693554e+04 
       3.189860630590e-02       2.055997926418e+04 
       3.204556952348e-02       2.046942942362e+04 
       3.219307125437e-02       2.037893349901e+04 
       3.234112617136e-02       2.028855343823e+04 
       3.248974944131e-02       2.019814966466e+04 
       3.263895674637e-02       2.010778891888e+04 
       3.278876430621e-02       2.001751434562e+04 
       3.293918890154e-02       1.992729364077e+04 
       3.309024789889e-02       1.983714375057e+04 
       3.324195927676e-02       1.974698809000e+04 
       3.339434165325e-02       1.965702319154e+04 
       3.354741431528e-02       1.956698570131e+04 
       3.370119724940e-02       1.947707418211e+04 
       3.385571117453e-02       1.938727792120e+04 
       3.401097757647e-02       1.929750932436e+04 
       3.416701874457e-02       1.920779447689e+04 
       3.432385781054e-02       1.911831281378e+04 
       3.448151878966e-02       1.902874173546e+04 
       3.464002662450e-02       1.893931842603e+04 
       3.479940723135e-02       1.884996142718e+04 
       3.495968754962e-02       1.876079133594e+04 
       3.512089559437e-02       1.867161074929e+04 
       3.528306051219e-02       1.858256307540e+04 
       3.544621264081e-02       1.849363701087e+04 
       3.561038357262e-02       1.840477748527e+04 
       3.577560622245e-02       1.831595890838e+04 
       3.594191489998e-02       1.822731240926e+04 
       3.610934538712e-02       1.813868380905e+04 
       3.627793502078e-02       1.805024985366e+04 
       3.644772278156e-02       1.796177666015e+04 
       3.661874938876e-02       1.787348728411e+04 
       3.679105740226e-02       1.778523979309e+04 
       3.696469133202e-02       1.769719938020e+04 
       3.713969775569e-02       1.760911441875e+04 
       3.731612544522e-02       1.752116565296e+04 
       3.749402550315e-02       1.743326338488e+04 
       3.767345150959e-02       1.734552687794e+04 
       3.785445968095e-02       1.725784415982e+04 
       3.803710904132e-02       1.717017139754e+04 
       3.822146160796e-02       1.708261744256e+04 
       3.840758259226e-02       1.699507783177e+04 
       3.859554061757e-02       1.690765764893e+04 
       3.878540795580e-02       1.682028558657e+04 
       3.897726078469e-02       1.673299653536e+04 
       3.917117946781e-02       1.664573787292e+04 
       3.936724885998e-02       1.655848555083e+04 
       3.956555864055e-02       1.647129720165e+04 
       3.976620367797e-02       1.638414972497e+04 
       3.996928442893e-02       1.629702728667e+04 
       4.017490737614e-02       1.620996916548e+04 
       4.038318550932e-02       1.612286896691e+04 
       4.059423885440e-02       1.603572883705e+04 
       4.080819505696e-02       1.594861292879e+04 
       4.102519002648e-02       1.586146691511e+04 
       4.124536864909e-02       1.577431282895e+04 
       4.146888557768e-02       1.568712915940e+04 
       4.169590610945e-02       1.559986723464e+04 
       4.192660716262e-02       1.551256604875e+04 
       4.216117836580e-02       1.542515881592e+04 
       4.239982327573e-02       1.533770308845e+04 
       4.264276074171e-02       1.525008936697e+04 
       4.289022643795e-02       1.516240434896e+04 
       4.314247458885e-02       1.507456657571e+04 
       4.339977991653e-02       1.498652785470e+04 
       4.366243984506e-02       1.489827046426e+04 
       4.393077700229e-02       1.480990328733e+04 
       4.420514206774e-02       1.472126615276e+04 
       4.448591702403e-02       1.463232222065e+04 
       4.477351888095e-02       1.454317275949e+04 
       4.506840395472e-02       1.445378319361e+04 
       4.537107280193e-02       1.436394629313e+04 
       4.568207592869e-02       1.427371950812e+04 
       4.600202042096e-02       1.418305540069e+04 
       4.633157767441e-02       1.409197411612e+04 
       4.667149244199e-02       1.400041718147e+04 
       4.702259346770e-02       1.390821141679e+04 
       4.738580603812e-02       1.381553476490e+04 
       4.776216686325e-02       1.372201627458e+04 
       4.815284179910e-02       1.362780167104e+04 
       4.855914705339e-02       1.353280602974e+04 
       4.898257467937e-02       1.343674944782e+04 
       4.942482337166e-02       1.333969344775e+04 
       4.988783584399e-02       1.324153337599e+04 
       5.037384440658e-02       1.314197460712e+04 
       5.088542678591e-02       1.304098139998e+04 
       5.142557475811e-02       1.293823304762e+04 
       5.199777880719e-02       1.283356634101e+04 
       5.260613276058e-02       1.272655229763e+04 
       5.325546313978e-02       1.261702148803e+04 
       5.395148863664e-02       1.250430340380e+04 
       5.470101532082e-02       1.238771586649e+04 
       5.551217212906e-02       1.226662330429e+04 
       5.639468733598e-02       1.213991721568e+04 
       5.736019712000e-02       1.200603822903e+04 
       5.842255678318e-02       1.186323545155e+04 
