# total lensed [l(l+1)/2pi] C_l's (units: [microK]^2)
# for l=2 to 2500, i.e. number of multipoles equal to 2499
#
# -> if you don't want to see such a header, set 'headers' to 'no' in input file
# -> for CMB lensing (d), these are C_l^dd for the deflection field.
#    Remember the conversion factors:
#    C_l^dd (deflection) = l(l+1) C_l^phi-phi
#    C_l^gg (shear/convergence) = 1/4 (l(l+1))^2 C_l^phi-phi
#
# 1:l     2:TT                     3:EE                     4:BB                     5:TE                     6:dd                     7:dT                     8:dE                 
    2       1.156084983261e+03       3.965549143897e-02       1.706698464388e-06       3.017182109109e+00       5.143224465093e-08       3.476148938709e-03      -1.439090429462e-05 
    3       1.082045206819e+03       5.009651890018e-02       3.414192319862e-06       3.403793666142e+00       6.337331428575e-08       3.466780053979e-03      -1.528272714832e-05 
    4       1.015265476828e+03       4.259442850176e-02       5.692070964012e-06       3.177023859436e+00       7.337346646979e-08       3.376375694194e-03      -1.275167804339e-05 
    5       9.655895228444e+02       2.788279582453e-02       8.541347827775e-06       2.691575971137e+00       8.207725297412e-08       3.256856914683e-03      -8.501132409680e-06 
    6       9.312371353721e+02       1.531035154824e-02       1.196325037157e-05       2.149852508292e+00       8.971320883268e-08       3.127843619014e-03      -3.941061217870e-06 
    7       9.084654285631e+02       8.194888079294e-03       1.595919569661e-05       1.669082716790e+00       9.646608640948e-08       2.998888339597e-03      -1.375489365290e-07 
    8       8.945092938034e+02       5.303165100685e-03       2.053076302194e-05       1.300423742154e+00       1.024799546191e-07       2.875237729413e-03       2.297860307333e-06 
    9       8.870620931994e+02       4.252684432281e-03       2.567966387148e-05       1.054413703143e+00       1.078516957032e-07       2.759553593518e-03       3.216625443844e-06 
   10       8.841993340122e+02       3.586171643082e-03       3.140771087372e-05       9.184104576447e-01       1.126428797616e-07       2.652161581803e-03       2.856585653077e-06 
   11       8.851795595430e+02       2.985109160912e-03       3.771678610173e-05       8.680043847756e-01       1.141742769213e-07       2.564036108307e-03       1.710939511503e-06 
   12       8.888741238791e+02       2.595932939883e-03       4.460880987430e-05       8.756327139422e-01       1.178770704727e-07       2.463187185066e-03       2.993246007736e-07 
   13       8.947491873721e+02       2.486680933061e-03       5.208571089891e-05       9.170637840198e-01       1.211887267523e-07       2.375213474830e-03      -8.993380427989e-07 
   14       9.022601480007e+02       2.563770890674e-03       6.014939856683e-05       9.744020612866e-01       1.241525196906e-07       2.284024281280e-03      -1.622449119249e-06 
   15       9.113679664321e+02       2.727516421506e-03       6.880173811255e-05       1.036750488149e+00       1.268047417624e-07       2.201588070439e-03      -1.781795442709e-06 
   16       9.216064958235e+02       2.973327576313e-03       7.804452922732e-05       1.099235510132e+00       1.291781055853e-07       2.124402964030e-03      -1.485143247700e-06 
   17       9.329198704508e+02       3.357459762619e-03       8.787948857586e-05       1.161493877893e+00       1.313001426127e-07       2.050968818936e-03      -9.479634494076e-07 
   18       9.449263800945e+02       3.921429122529e-03       9.830823478067e-05       1.225448775554e+00       1.331430883078e-07       1.980623540117e-03      -4.193746823761e-07 
   19       9.577105507611e+02       4.663361031781e-03       1.093322881129e-04       1.293175199285e+00       1.348815834875e-07       1.915438179047e-03      -5.308266528320e-08 
   20       9.711162794376e+02       5.562125140843e-03       1.209530466836e-04       1.366370296021e+00       1.363720547037e-07       1.853864867079e-03       3.643270894427e-08 
   21       9.851892284578e+02       6.611229551502e-03       1.331718124535e-04       1.444647012113e+00       1.377052051088e-07       1.795944852186e-03      -1.357708366164e-07 
   22       9.997856519113e+02       7.806010992839e-03       1.459897649255e-04       1.526143024538e+00       1.388551054252e-07       1.739605243560e-03      -4.636551030123e-07 
   23       1.014893190667e+03       9.144909032266e-03       1.594079996275e-04       1.607477463411e+00       1.398944863394e-07       1.685441268094e-03      -8.367177444445e-07 
   24       1.030385968899e+03       1.062610240370e-02       1.734275013798e-04       1.684458629114e+00       1.407735815385e-07       1.633441832237e-03      -1.124580650734e-06 
   25       1.046343632098e+03       1.225056679859e-02       1.880491972711e-04       1.754705179228e+00       1.415489006557e-07       1.584684263687e-03      -1.264410861371e-06 
   26       1.062766061316e+03       1.402246998756e-02       2.032739243523e-04       1.816495542711e+00       1.421981231246e-07       1.539245422258e-03      -1.231183964434e-06 
   27       1.079547427291e+03       1.596021192985e-02       2.191024797986e-04       1.869288489468e+00       1.427491600946e-07       1.496355365647e-03      -1.072244025871e-06 
   28       1.096487495000e+03       1.808647730030e-02       2.355355990260e-04       1.913167697930e+00       1.431645834765e-07       1.454166060880e-03      -8.745862938422e-07 
   29       1.113663439684e+03       2.041342711172e-02       2.525740336866e-04       1.948847158869e+00       1.435201066541e-07       1.413400994700e-03      -6.907474979674e-07 
   30       1.131157283343e+03       2.294980465845e-02       2.702184893511e-04       1.977563200826e+00       1.438369684928e-07       1.374995615639e-03      -5.732213383369e-07 
   31       1.148967239673e+03       2.570350973052e-02       2.884696254158e-04       2.000529236782e+00       1.440325195437e-07       1.339059140871e-03      -5.737123099435e-07 
   32       1.167111631269e+03       2.868034204229e-02       3.073281480757e-04       2.017134079106e+00       1.441530636263e-07       1.305440701772e-03      -6.765104663408e-07 
   33       1.185542248888e+03       3.188462520490e-02       3.267947529014e-04       2.026051653505e+00       1.442279027072e-07       1.273069715321e-03      -8.278047682215e-07 
   34       1.204158734278e+03       3.532048696558e-02       3.468701129487e-04       2.025851643674e+00       1.442194652025e-07       1.240314060794e-03      -9.617902616662e-07 
   35       1.222993670901e+03       3.899553924607e-02       3.675549171081e-04       2.015582288603e+00       1.441606563442e-07       1.207703349476e-03      -1.052989434781e-06 
   36       1.242078791304e+03       4.291844425340e-02       3.888498483478e-04       1.994374788494e+00       1.440585335800e-07       1.176329748118e-03      -1.086993754396e-06 
   37       1.261408104206e+03       4.709738139675e-02       4.107555654208e-04       1.961451917635e+00       1.438727883113e-07       1.147037308898e-03      -1.053483735479e-06 
   38       1.281001110899e+03       5.153810432854e-02       4.332726674283e-04       1.916703609903e+00       1.436430276401e-07       1.120084909110e-03      -9.676558323608e-07 
   39       1.300851133740e+03       5.624519253150e-02       4.564017201821e-04       1.860307762687e+00       1.434061234484e-07       1.095204361124e-03      -8.599368022044e-07 
   40       1.320902054981e+03       6.122251293481e-02       4.801432672853e-04       1.792587146267e+00       1.431483996768e-07       1.071568008150e-03      -7.724806789566e-07 
   41       1.341080591975e+03       6.647390553921e-02       5.044977977713e-04       1.713870878022e+00       1.428213809097e-07       1.048103657036e-03      -7.478683286113e-07 
   42       1.361417662998e+03       7.200561833643e-02       5.294656333903e-04       1.624004011465e+00       1.424483427984e-07       1.024882718748e-03      -7.845235970557e-07 
   43       1.381958195345e+03       7.782458829229e-02       5.550470067048e-04       1.522692724318e+00       1.420554999929e-07       1.002229879004e-03      -8.624659690195e-07 
   44       1.402724959211e+03       8.393778312631e-02       5.812420904561e-04       1.409636118483e+00       1.416353489955e-07       9.803362375164e-04      -9.533937805627e-07 
   45       1.423724332248e+03       9.035146327163e-02       6.080509580219e-04       1.284522007155e+00       1.411592960221e-07       9.592823301097e-04      -1.027601599273e-06 
   46       1.444971296176e+03       9.706869408716e-02       6.354734532844e-04       1.147016470712e+00       1.406522742443e-07       9.391932225202e-04      -1.081112917765e-06 
   47       1.466467836280e+03       1.040910975120e-01       6.635092799835e-04       9.967685101267e-01       1.401433582847e-07       9.201011812998e-04      -1.118742277366e-06 
   48       1.488193552254e+03       1.114194927234e-01       6.921580335498e-04       8.334107438841e-01       1.396407175495e-07       9.018742722837e-04      -1.147355774079e-06 
   49       1.510103731505e+03       1.190538578521e-01       7.214191977898e-04       6.565576870566e-01       1.391252756699e-07       8.841896665386e-04      -1.176116355997e-06 
   50       1.532150174596e+03       1.269939452300e-01       7.512921389198e-04       4.658496978635e-01       1.385631077075e-07       8.666588738263e-04      -1.214414420421e-06 
   51       1.554354805618e+03       1.352414128317e-01       7.817760934549e-04       2.611028728009e-01       1.379686653567e-07       8.493324761376e-04      -1.264030991684e-06 
   52       1.576752712120e+03       1.437982052115e-01       8.128701713010e-04       4.219686412206e-02       1.373627314804e-07       8.323495452902e-04      -1.324268044118e-06 
   53       1.599370303619e+03       1.526659431862e-01       8.445733547579e-04      -1.909668135727e-01       1.367525216305e-07       8.157922987406e-04      -1.393955297581e-06 
   54       1.622224455603e+03       1.618459163054e-01       8.768844950784e-04      -4.384643552054e-01       1.361279623732e-07       7.996760394572e-04      -1.471394826309e-06 
   55       1.645324873295e+03       1.713389384867e-01       9.098023866740e-04      -7.003545061794e-01       1.354703442344e-07       7.839810352667e-04      -1.554463989097e-06 
   56       1.668683831627e+03       1.811448901759e-01       9.433260192010e-04      -9.766954743448e-01       1.347936294175e-07       7.687874446495e-04      -1.641107991494e-06 
   57       1.692307355534e+03       1.912630492605e-01       9.774543820714e-04      -1.267531469423e+00       1.341159468687e-07       7.541714797674e-04      -1.728928215897e-06 
   58       1.716191497524e+03       2.016922053572e-01       1.012186391887e-03      -1.572887584018e+00       1.334465011830e-07       7.401605339478e-04      -1.814993318323e-06 
   59       1.740321607125e+03       2.124306469514e-01       1.047520892025e-03      -1.892769570774e+00       1.327832841251e-07       7.267260036617e-04      -1.895792577825e-06 
   60       1.764671600330e+03       2.234761485356e-01       1.083456652220e-03      -2.227163619532e+00       1.321105772929e-07       7.137758023199e-04      -1.967187645491e-06 
   61       1.789215037956e+03       2.348257269200e-01       1.119992508980e-03      -2.576035163460e+00       1.314073108451e-07       7.011965602317e-04      -2.025285585591e-06 
   62       1.813962919261e+03       2.464748753422e-01       1.157127824598e-03      -2.939325488407e+00       1.306832467926e-07       6.890153353270e-04      -2.069522166870e-06 
   63       1.838933113734e+03       2.584181338403e-01       1.194862130900e-03      -3.316953963582e+00       1.299539058708e-07       6.772780987248e-04      -2.100520923018e-06 
   64       1.864138951936e+03       2.706492851257e-01       1.233195001481e-03      -3.708818696799e+00       1.292297089650e-07       6.660006561443e-04      -2.119293463044e-06 
   65       1.889588869636e+03       2.831613343980e-01       1.272126055760e-03      -4.114796280826e+00       1.285147165607e-07       6.551646893352e-04      -2.127276783087e-06 
   66       1.915286051940e+03       2.959464891598e-01       1.311654963032e-03      -4.534741539732e+00       1.278052622798e-07       6.447136440928e-04      -2.126371834779e-06 
   67       1.941228077426e+03       3.089961390312e-01       1.351781446516e-03      -4.968487275237e+00       1.270884771298e-07       6.345484648570e-04      -2.118983350134e-06 
   68       1.967411037304e+03       3.223015513055e-01       1.392505350747e-03      -5.415848932989e+00       1.263486715732e-07       6.245632450641e-04      -2.107569098780e-06 
   69       1.993843657554e+03       3.358561663951e-01       1.433826850504e-03      -5.876640266324e+00       1.255933484943e-07       6.147751079621e-04      -2.093031898159e-06 
   70       2.020535412161e+03       3.496537333786e-01       1.475746291691e-03      -6.350660405307e+00       1.248346949955e-07       6.052256068495e-04      -2.075915454544e-06 
   71       2.047492064185e+03       3.636876335675e-01       1.518264137322e-03      -6.837689092100e+00       1.240818519207e-07       5.959423494614e-04      -2.056860363470e-06 
   72       2.074715424348e+03       3.779508786265e-01       1.561380973192e-03      -7.337486553135e+00       1.233402108181e-07       5.869372194619e-04      -2.036610276819e-06 
   73       2.102203109619e+03       3.924361086935e-01       1.605097513555e-03      -7.849793371293e+00       1.226106572437e-07       5.782045342865e-04      -2.016018224639e-06 
   74       2.129948301796e+03       4.071355904995e-01       1.649414606788e-03      -8.374330358084e+00       1.218887588562e-07       5.697191393321e-04      -1.996053091697e-06 
   75       2.157939506092e+03       4.220412154894e-01       1.694333241075e-03      -8.910798425820e+00       1.211638967589e-07       5.614344384972e-04      -1.977806248761e-06 
   76       2.186165578722e+03       4.371442264809e-01       1.739854470671e-03      -9.458890116243e+00       1.204239652778e-07       5.533008689392e-04      -1.962306309312e-06 
   77       2.214632401746e+03       4.524343442531e-01       1.785979166684e-03      -1.001832689603e+01       1.196736656935e-07       5.453318465093e-04      -1.949888944356e-06 
   78       2.243348824490e+03       4.679004775320e-01       1.832708230944e-03      -1.058882846166e+01       1.189210981376e-07       5.375520644160e-04      -1.940667863672e-06 
   79       2.272321533083e+03       4.835309729959e-01       1.880042675347e-03      -1.117010179574e+01       1.181723184909e-07       5.299776227345e-04      -1.934707301647e-06 
   80       2.301554917091e+03       4.993136078285e-01       1.927983625904e-03      -1.176184127820e+01       1.174309291468e-07       5.226150682779e-04      -1.932016991115e-06 
   81       2.331050936141e+03       5.152355822732e-01       1.976532326778e-03      -1.236372879746e+01       1.166976419497e-07       5.154604037991e-04      -1.932546983081e-06 
   82       2.360808986555e+03       5.312835121863e-01       2.025690144337e-03      -1.297543386170e+01       1.159698125875e-07       5.084980665263e-04      -1.936182312327e-06 
   83       2.390825767978e+03       5.474434215908e-01       2.075458571192e-03      -1.359661371000e+01       1.152409457210e-07       5.016998760309e-04      -1.942737508902e-06 
   84       2.421097473425e+03       5.637011736998e-01       2.125839204398e-03      -1.422690796122e+01       1.145038132011e-07       4.950362547247e-04      -1.951960924183e-06 
   85       2.451627068730e+03       5.800438623987e-01       2.176833667034e-03      -1.486592129765e+01       1.137622320829e-07       4.885155603539e-04      -1.963561705269e-06 
   86       2.482417980955e+03       5.964586388612e-01       2.228443680978e-03      -1.551323810119e+01       1.130221753251e-07       4.821525025532e-04      -1.977179180826e-06 
   87       2.513471789343e+03       6.129322935135e-01       2.280671095154e-03      -1.616842767963e+01       1.122882274593e-07       4.759561528966e-04      -1.992367993186e-06 
   88       2.544788130992e+03       6.294512559571e-01       2.333517889142e-03      -1.683104428599e+01       1.115633355127e-07       4.699293891382e-04      -2.008592365686e-06 
   89       2.576364606533e+03       6.460015948915e-01       2.386986176787e-03      -1.750062713796e+01       1.108485446181e-07       4.640683234683e-04      -2.025220227776e-06 
   90       2.608196685813e+03       6.625690180372e-01       2.441078209813e-03      -1.817670043727e+01       1.101427179539e-07       4.583617147851e-04      -2.041517197918e-06 
   91       2.640277613568e+03       6.791388720587e-01       2.495796381427e-03      -1.885877338912e+01       1.094422406540e-07       4.527903649806e-04      -2.056640424252e-06 
   92       2.672598315106e+03       6.956961424871e-01       2.551143229935e-03      -1.954634022154e+01       1.087407073301e-07       4.473264992432e-04      -2.069632283060e-06 
   93       2.705150080287e+03       7.122257106750e-01       2.607121532079e-03      -2.023888973368e+01       1.080315587661e-07       4.419432306381e-04      -2.079637064246e-06 
   94       2.737933282095e+03       7.287131690341e-01       2.663734591268e-03      -2.093593554120e+01       1.073176648517e-07       4.366468297153e-04      -2.086621663350e-06 
   95       2.770949801055e+03       7.451441288375e-01       2.720985999577e-03      -2.163699043677e+01       1.066039804533e-07       4.314505310857e-04      -2.090804952602e-06 
   96       2.804200308328e+03       7.615039775175e-01       2.778879556650e-03      -2.234155741479e+01       1.058946984772e-07       4.263648087556e-04      -2.092451181252e-06 
   97       2.837684209531e+03       7.777778821165e-01       2.837419274551e-03      -2.304912982151e+01       1.051931156513e-07       4.213971102383e-04      -2.091872544735e-06 
   98       2.871399588554e+03       7.939507927387e-01       2.896609382596e-03      -2.375919150529e+01       1.045014906910e-07       4.165515835792e-04      -2.089431808162e-06 
   99       2.905343151371e+03       8.100074460005e-01       2.956454332204e-03      -2.447121696676e+01       1.038208946876e-07       4.118287972920e-04      -2.085544984144e-06 
  100       2.939510169860e+03       8.259323684822e-01       3.016958801732e-03      -2.518467150906e+01       1.031510535547e-07       4.072254532087e-04      -2.080684064941e-06 
  101       2.973894425617e+03       8.417098801788e-01       3.078127701321e-03      -2.589901138799e+01       1.024901823694e-07       4.027340922407e-04      -2.075379808947e-06 
  102       3.008488153773e+03       8.573240979511e-01       3.139966177734e-03      -2.661368396224e+01       1.018348114460e-07       3.983427930526e-04      -2.070224581505e-06 
  103       3.043281986808e+03       8.727589389768e-01       3.202479619203e-03      -2.732812784358e+01       1.011796039789e-07       3.940348636489e-04      -2.065875250041e-06 
  104       3.078266873018e+03       8.879985103549e-01       3.265673478854e-03      -2.804177703081e+01       1.005193319062e-07       3.897944167056e-04      -2.062915189706e-06 
  105       3.113440248064e+03       9.030283304227e-01       3.329552707409e-03      -2.875407362415e+01       9.985584977219e-08       3.856250854195e-04      -2.061401774270e-06 
  106       3.148800596246e+03       9.178342796232e-01       3.394122252517e-03      -2.946445711638e+01       9.919262914358e-08       3.815344999511e-04      -2.061232962417e-06 
  107       3.184345516233e+03       9.324022366856e-01       3.459387236146e-03      -3.017236075409e+01       9.853268365648e-08       3.775285895551e-04      -2.062278679803e-06 
