# total lensed [l(l+1)/2pi] C_l's (units: [microK]^2)
# for l=2 to 2500, i.e. number of multipoles equal to 2499
#
# -> if you don't want to see such a header, set 'headers' to 'no' in input file
# -> for CMB lensing (d), these are C_l^dd for the deflection field.
#    Remember the conversion factors:
#    C_l^dd (deflection) = l(l+1) C_l^phi-phi
#    C_l^gg (shear/convergence) = 1/4 (l(l+1))^2 C_l^phi-phi
#
# 1:l     2:TT                     3:EE                     4:BB                     5:TE                     6:dd                     7:dT                     8:dE                 
    2       1.156082827610e+03       3.965541732260e-02       1.706693275380e-06       3.017176470455e+00       5.143215319630e-08       3.476142588338e-03      -1.439087739865e-05 
    3       1.082043190086e+03       5.009642526806e-02       3.414181937417e-06       3.403787304973e+00       6.337320327072e-08       3.466773792715e-03      -1.528269858561e-05 
    4       1.015263586131e+03       4.259434888811e-02       5.692053650257e-06       3.177017922107e+00       7.337334134423e-08       3.376369722245e-03      -1.275165421092e-05 
    5       9.655877284562e+02       2.788274370297e-02       8.541321839386e-06       2.691570941065e+00       8.207711427563e-08       3.256851248328e-03      -8.501116521196e-06 
    6       9.312354069440e+02       1.531032292001e-02       1.196321395878e-05       2.149848490578e+00       8.971305619297e-08       3.127838207124e-03      -3.941053852513e-06 
    7       9.084637414495e+02       8.194872744846e-03       1.595914710244e-05       1.669079597590e+00       9.646592234915e-08       2.998883205860e-03      -1.375486799394e-07 
    8       8.945076320310e+02       5.303155165332e-03       2.053070048169e-05       1.300421312020e+00       1.024797809295e-07       2.875232893181e-03       2.297856012900e-06 
    9       8.870604455476e+02       4.252676454140e-03       2.567958561246e-05       1.054411732712e+00       1.078515124217e-07       2.759548969094e-03       3.216619432339e-06 
   10       8.841976902714e+02       3.586164903859e-03       3.140761511524e-05       9.184087414527e-01       1.126426914204e-07       2.652157165609e-03       2.856580314703e-06 
   11       8.851779207548e+02       2.985103537605e-03       3.771667105537e-05       8.680027629488e-01       1.141740864104e-07       2.564031944807e-03       1.710936314381e-06 
   12       8.888724781031e+02       2.595928035801e-03       4.460867374435e-05       8.756310776698e-01       1.178768747570e-07       2.463183335660e-03       2.993240405240e-07 
   13       8.947475284931e+02       2.486676224362e-03       5.208555188304e-05       9.170620702318e-01       1.211885259697e-07       2.375209764215e-03      -8.993363630774e-07 
   14       9.022584732542e+02       2.563766028406e-03       6.014921485693e-05       9.744002401977e-01       1.241523146269e-07       2.284020628996e-03      -1.622446085219e-06 
   15       9.113662803833e+02       2.727511243037e-03       6.880152789558e-05       1.036748550308e+00       1.268045333877e-07       2.201584583792e-03      -1.781792115694e-06 
   16       9.216047851392e+02       2.973321927598e-03       7.804429068634e-05       1.099233455759e+00       1.291778944349e-07       2.124399723746e-03      -1.485140471697e-06 
   17       9.329181373851e+02       3.357453384462e-03       8.787921989100e-05       1.161491708383e+00       1.312999289965e-07       2.050965786293e-03      -9.479616676448e-07 
   18       9.449246355457e+02       3.921421678193e-03       9.830793413004e-05       1.225446485028e+00       1.331428726348e-07       1.980620676833e-03      -4.193738970738e-07 
   19       9.577087908974e+02       4.663352188023e-03       1.093319536734e-04       1.293172780397e+00       1.348813660020e-07       1.915435479396e-03      -5.308257820205e-08 
   20       9.711144835873e+02       5.562114603880e-03       1.209526766315e-04       1.366367742545e+00       1.363718360433e-07       1.853862360474e-03       3.643263966963e-08 
   21       9.851873941384e+02       6.611217039690e-03       1.331714049651e-04       1.444644315202e+00       1.377049855685e-07       1.795942507497e-03      -1.357705663281e-07 
   22       9.997838025555e+02       7.805996233270e-03       1.459893181774e-04       1.526140173640e+00       1.388548849630e-07       1.739602945834e-03      -4.636542314361e-07 
   23       1.014891328737e+03       9.144891754984e-03       1.594075117964e-04       1.607474457509e+00       1.398942648602e-07       1.685438984146e-03      -8.367161999406e-07 
   24       1.030384065977e+03       1.062608234217e-02       1.734269706426e-04       1.684455480320e+00       1.407733593455e-07       1.633439673117e-03      -1.124578568888e-06 
   25       1.046341679702e+03       1.225054368438e-02       1.880486218042e-04       1.754701901763e+00       1.415486779535e-07       1.584682286782e-03      -1.264408503161e-06 
   26       1.062764083041e+03       1.402244354436e-02       2.032733023311e-04       1.816492149794e+00       1.421979000234e-07       1.539243559898e-03      -1.231181662170e-06 
   27       1.079545433834e+03       1.596018184703e-02       2.191018093966e-04       1.869284997015e+00       1.427489367548e-07       1.496353562047e-03      -1.072242021960e-06 
   28       1.096485472265e+03       1.808644322502e-02       2.355348784139e-04       1.913164124851e+00       1.431643603074e-07       1.454164325374e-03      -8.745846576996e-07 
   29       1.113661375031e+03       2.041338866835e-02       2.525732610309e-04       1.948843521953e+00       1.435198838794e-07       1.413399354250e-03      -6.907462018520e-07 
   30       1.131155175920e+03       2.294976145495e-02       2.702176628132e-04       1.977559512141e+00       1.438367460709e-07       1.374994100004e-03      -5.732202627904e-07 
   31       1.148965100307e+03       2.570346135999e-02       2.884687431509e-04       2.000525503906e+00       1.440322973046e-07       1.339057778111e-03      -5.737112447066e-07 
   32       1.167109468558e+03       2.868028808707e-02       3.073272082316e-04       2.017130311791e+00       1.441528414301e-07       1.305439494585e-03      -6.765092237351e-07 
   33       1.185540063856e+03       3.188456523937e-02       3.267937536174e-04       2.026047866396e+00       1.442276807145e-07       1.273068624943e-03      -8.278032470397e-07 
   34       1.204156520372e+03       3.532042055651e-02       3.468690523550e-04       2.025847856642e+00       1.442192440391e-07       1.240313007415e-03      -9.617884690613e-07 
   35       1.222991420654e+03       3.899546594593e-02       3.675537933253e-04       2.015578524231e+00       1.441604365079e-07       1.207702263309e-03      -1.052987427535e-06 
   36       1.242076498673e+03       4.291836359833e-02       3.888486594863e-04       1.994371071465e+00       1.440583152063e-07       1.176328595719e-03      -1.086991626247e-06 
   37       1.261405764948e+03       4.709729290745e-02       4.107543095804e-04       1.961448274011e+00       1.438725711833e-07       1.147036099872e-03      -1.053481612026e-06 
   38       1.280998722037e+03       5.153800751497e-02       4.332713427001e-04       1.916700063466e+00       1.436428114635e-07       1.120083668124e-03      -9.676538190055e-07 
   39       1.300848693701e+03       5.624508689513e-02       4.564003246490e-04       1.860304333175e+00       1.434059080515e-07       1.095203120228e-03      -8.599349556439e-07 
   40       1.320899564012e+03       6.122239796994e-02       4.801417990215e-04       1.792583848326e+00       1.431481852019e-07       1.071566807808e-03      -7.724789871821e-07 
   41       1.341078052140e+03       6.647378073306e-02       5.044962548428e-04       1.713867721949e+00       1.428211679088e-07       1.048102543618e-03      -7.478667084060e-07 
   42       1.361415076642e+03       7.200548316466e-02       5.294640138592e-04       1.624001010202e+00       1.424481318242e-07       1.024881729068e-03      -7.845219612665e-07 
   43       1.381955564640e+03       7.782444221772e-02       5.550453086303e-04       1.522689896120e+00       1.420552914617e-07       1.002229031720e-03      -8.624642530855e-07 
   44       1.402722286116e+03       8.393762559889e-02       5.812403118958e-04       1.409633487973e+00       1.416351431742e-07       9.803355269463e-04      -9.533919529047e-07 
   45       1.423721618505e+03       9.035129372973e-02       6.080490970329e-04       1.284519604871e+00       1.411590930262e-07       9.592817264830e-04      -1.027599663643e-06 
   46       1.444968543417e+03       9.706851196337e-02       6.354715079268e-04       1.147014327505e+00       1.406520740726e-07       9.391926968573e-04      -1.081110883751e-06 
   47       1.466465046060e+03       1.040909022357e-01       6.635072483222e-04       9.967666552788e-01       1.401431608446e-07       9.201007152968e-04      -1.118740150968e-06 
   48       1.488190726039e+03       1.114192837223e-01       6.921559136564e-04       8.334092046269e-01       1.396405226847e-07       9.018738623878e-04      -1.147353556337e-06 
   49       1.510100870673e+03       1.190536345538e-01       7.214169877441e-04       6.565564880640e-01       1.391250831970e-07       8.841893285047e-04      -1.176114041469e-06 
   50       1.532147280419e+03       1.269937070624e-01       7.512898368113e-04       4.658488614594e-01       1.385629174462e-07       8.666586427801e-04      -1.214411997343e-06 
   51       1.554351879216e+03       1.352411592196e-01       7.817736973825e-04       2.611024216055e-01       1.379684771056e-07       8.493323897475e-04      -1.264028448424e-06 
   52       1.576749754444e+03       1.437979355765e-01       8.128676793738e-04       4.219682187714e-02       1.373625450377e-07       8.323496379137e-04      -1.324265371580e-06 
   53       1.599367315437e+03       1.526656569471e-01       8.445707650966e-04      -1.909664218540e-01       1.367523368384e-07       8.157925998289e-04      -1.393952490049e-06 
   54       1.622221437484e+03       1.618456128791e-01       8.768818058174e-04      -4.384635030792e-01       1.361277791727e-07       7.996765717861e-04      -1.471391882378e-06 
   55       1.645321825476e+03       1.713386172887e-01       9.097995959608e-04      -7.003531658408e-01       1.354701626844e-07       7.839818126132e-04      -1.554460911809e-06 
   56       1.668680753456e+03       1.811445506219e-01       9.433231251899e-04      -9.766936174721e-01       1.347934495595e-07       7.687884680000e-04      -1.641104785513e-06 
   57       1.692304245230e+03       1.912626907671e-01       9.774513829223e-04      -1.267529067424e+00       1.341157686907e-07       7.541727341408e-04      -1.728924886716e-06 
   58       1.716188352048e+03       2.016918273431e-01       1.012183285765e-03      -1.572884608055e+00       1.334463246244e-07       7.401619853050e-04      -1.814989872262e-06 
   59       1.740318422046e+03       2.124302488380e-01       1.047517677101e-03      -1.892765991790e+00       1.327831090842e-07       7.267275955593e-04      -1.895789022022e-06 
   60       1.764668369685e+03       2.234757297480e-01       1.083453326670e-03      -2.227159408276e+00       1.321104036371e-07       7.137774523003e-04      -1.967183987889e-06 
   61       1.789211754637e+03       2.348252868887e-01       1.119989070984e-03      -2.576030290727e+00       1.314071384199e-07       7.011981635594e-04      -2.025281835107e-06 
   62       1.813959577103e+03       2.464744135063e-01       1.157124272332e-03      -2.939319925982e+00       1.306830754224e-07       6.890167943225e-04      -2.069518334185e-06 
   63       1.838929708281e+03       2.584176496495e-01       1.194858462534e-03      -3.316947684637e+00       1.299537353686e-07       6.772793345732e-04      -2.100517020946e-06 
   64       1.864135480719e+03       2.706487780421e-01       1.233191215177e-03      -3.708811676102e+00       1.292295391489e-07       6.660016142548e-04      -2.119289506736e-06 
   65       1.889585332461e+03       2.831608038973e-01       1.272122149670e-03      -4.114788494948e+00       1.285145472731e-07       6.551653451675e-04      -2.127272790257e-06 
   66       1.915282451195e+03       2.959459347332e-01       1.311650935295e-03      -4.534732967273e+00       1.278050934099e-07       6.447140094637e-04      -2.126367825932e-06 
   67       1.941224418396e+03       3.089955601866e-01       1.351777295261e-03      -4.968477897047e+00       1.270883086400e-07       6.345485947442e-04      -2.118979348812e-06 
   68       1.967407327720e+03       3.223009475680e-01       1.392501074087e-03      -5.415838731729e+00       1.263485035045e-07       6.245632345000e-04      -2.107565130618e-06 
   69       1.993839904650e+03       3.358555373014e-01       1.433822446544e-03      -5.876629223860e+00       1.255931808930e-07       6.147750544840e-04      -2.093027985909e-06 
   70       2.020531621737e+03       3.496530784764e-01       1.475741758528e-03      -6.350648501842e+00       1.248345278936e-07       6.052255979077e-04      -2.075911615940e-06 
   71       2.047488240397e+03       3.636869524160e-01       1.518259473042e-03      -6.837676305928e+00       1.240816853393e-07       5.959424590959e-04      -2.056856610108e-06 
   72       2.074711569487e+03       3.779501707969e-01       1.561376175871e-03      -7.337472860388e+00       1.233400447713e-07       5.869375047046e-04      -2.036606612952e-06 
   73       2.102199223880e+03       3.924353737697e-01       1.605092581256e-03      -7.849778745674e+00       1.226104917425e-07       5.782050312807e-04      -2.016014645894e-06 
   74       2.129944383044e+03       4.071348280786e-01       1.649409537564e-03      -8.374314770595e+00       1.218885939148e-07       5.697198591616e-04      -1.996049583693e-06 
   75       2.157935549618e+03       4.220404251823e-01       1.694328032962e-03      -8.910781844474e+00       1.211637324007e-07       5.614353627157e-04      -1.977802785644e-06 
   76       2.186161577611e+03       4.371434079137e-01       1.739849121695e-03      -9.458872506769e+00       1.204238015367e-07       5.533019513178e-04      -1.962302855174e-06 
   77       2.214628349234e+03       4.524334970716e-01       1.785973674870e-03      -1.001830822576e+01       1.196735025958e-07       5.453330361154e-04      -1.949885464443e-06 
   78       2.243344714684e+03       4.678996014036e-01       1.832702594320e-03      -1.058880870082e+01       1.189209356987e-07       5.375533126069e-04      -1.940664328296e-06 
   79       2.272317361093e+03       4.835300676107e-01       1.880036891945e-03      -1.117008091776e+01       1.181721567166e-07       5.299788842060e-04      -1.934703687436e-06 
   80       2.301550679171e+03       4.993126729007e-01       1.927977693760e-03      -1.176181926005e+01       1.174307680366e-07       5.226163021935e-04      -1.932013282352e-06 
   81       2.331046629832e+03       5.152346175421e-01       1.976526243936e-03      -1.236370562005e+01       1.166974814990e-07       5.154615750051e-04      -1.932543173135e-06 
   82       2.360804610834e+03       5.312825174177e-01       2.025683908845e-03      -1.297540951019e+01       1.159696527915e-07       5.084991468529e-04      -1.936178405179e-06 
   83       2.390821323411e+03       5.474423965779e-01       2.075452181105e-03      -1.359658817419e+01       1.152407865789e-07       5.017008456821e-04      -1.942733520769e-06 
   84       2.421092961986e+03       5.637001182638e-01       2.125832657779e-03      -1.422688123494e+01       1.145036547171e-07       4.950371024451e-04      -1.951956882375e-06 
   85       2.451622492529e+03       5.800427763847e-01       2.176826961945e-03      -1.486589337487e+01       1.137620742567e-07       4.885162793671e-04      -1.963557637738e-06 
   86       2.482413341890e+03       5.964575221382e-01       2.228436815482e-03      -1.551320897488e+01       1.130220181506e-07       4.821530898483e-04      -1.977175112897e-06 
   87       2.513467089064e+03       6.129311459747e-01       2.280664067311e-03      -1.616839734155e+01       1.122880709270e-07       4.759566097686e-04      -1.992363946923e-06 
   88       2.544783370873e+03       6.294500775204e-01       2.333510697013e-03      -1.683101272652e+01       1.115631796120e-07       4.699297217595e-04      -2.008588359207e-06 
   89       2.576359787639e+03       6.460003855005e-01       2.386978818432e-03      -1.750059434589e+01       1.108483893404e-07       4.640685434917e-04      -2.025216274531e-06 
   90       2.608191808866e+03       6.625677776616e-01       2.441070683289e-03      -1.817666639958e+01       1.101425632959e-07       4.583618399789e-04      -2.041513305919e-06 
   91       2.640272678913e+03       6.791376006950e-01       2.495788684792e-03      -1.885873809076e+01       1.094420866216e-07       4.527904198970e-04      -2.056636595262e-06 
   92       2.672593322677e+03       6.956948401591e-01       2.551135361247e-03      -1.954630364522e+01       1.087405539425e-07       4.473265159202e-04      -2.069628511731e-06 
   93       2.705145029645e+03       7.122243774339e-01       2.607113489389e-03      -2.023885186042e+01       1.080314060556e-07       4.419432473871e-04      -2.079633338576e-06 
   94       2.737928172712e+03       7.287118049580e-01       2.663726372612e-03      -2.093589635329e+01       1.073175128467e-07       4.366468835914e-04      -2.086617969513e-06 
   95       2.770944632386e+03       7.451427340312e-01       2.720977602965e-03      -2.163694991876e+01       1.066038291745e-07       4.314506553196e-04      -2.090801276300e-06 
   96       2.804195079815e+03       7.615025521125e-01       2.778870980069e-03      -2.234151555356e+01       1.058945479379e-07       4.263650319655e-04      -2.092447507801e-06 
   97       2.837678920606e+03       7.777764262722e-01       2.837410515959e-03      -2.304908660651e+01       1.051929658574e-07       4.213974555961e-04      -2.091868859155e-06 
   98       2.871394238637e+03       7.939493066421e-01       2.896600439925e-03      -2.375914692869e+01       1.045013416425e-07       4.165520679286e-04      -2.089428095277e-06 
   99       2.905337739876e+03       8.100059298671e-01       2.956445203352e-03      -2.447117102362e+01       1.038207463789e-07       4.118294302187e-04      -2.085541228688e-06 
  100       2.939504696196e+03       8.259308225558e-01       3.016949484567e-03      -2.518462419750e+01       1.031509059756e-07       4.072262360601e-04      -2.080680251673e-06 
  101       2.973888889192e+03       8.417083047325e-01       3.078118193673e-03      -2.589896270940e+01       1.024900355062e-07       4.027350170957e-04      -2.075375922774e-06 
  102       3.008482553994e+03       8.573224932871e-01       3.139956477401e-03      -2.661363392146e+01       1.018346652830e-07       3.983438416400e-04      -2.070220607611e-06 
  103       3.043276323085e+03       8.727573054273e-01       3.202469723940e-03      -2.732807644907e+01       1.011794584996e-07       3.940360062126e-04      -2.065871174030e-06 
  104       3.078261144771e+03       8.879968482813e-01       3.265663386382e-03      -2.804172429429e+01       1.005191870940e-07       3.897956134258e-04      -2.062910998070e-06 
  105       3.113434454743e+03       9.030266402142e-01       3.329542415430e-03      -2.875401955825e+01       9.985570560752e-08       3.856262962124e-04      -2.061397455915e-06 
  106       3.148794737340e+03       9.178325616957e-01       3.394111758724e-03      -2.946440173397e+01       9.919248560367e-08       3.815356874832e-04      -2.061228509360e-06 
  107       3.184339591276e+03       9.324004914823e-01       3.459376538218e-03      -3.017230406826e+01       9.853254071672e-08       3.775297198255e-04      -2.062274087592e-06 
