# total lensed [l(l+1)/2pi] C_l's (units: [microK]^2)
# for l=2 to 2500, i.e. number of multipoles equal to 2499
#
# -> if you don't want to see such a header, set 'headers' to 'no' in input file
# -> for CMB lensing (d), these are C_l^dd for the deflection field.
#    Remember the conversion factors:
#    C_l^dd (deflection) = l(l+1) C_l^phi-phi
#    C_l^gg (shear/convergence) = 1/4 (l(l+1))^2 C_l^phi-phi
#
# 1:l     2:TT                     3:EE                     4:BB                     5:TE                     6:dd                     7:dT                     8:dE                 
    2       1.156071173586e+03       3.965501733393e-02       1.706658079310e-06       3.017146039038e+00       5.143163783248e-08       3.476107703913e-03      -1.439073225000e-05 
    3       1.082032284494e+03       5.009591995173e-02       3.414111530228e-06       3.403752974158e+00       6.337256812774e-08       3.466739045686e-03      -1.528254444202e-05 
    4       1.015253354954e+03       4.259391921495e-02       5.691936271804e-06       3.176985878531e+00       7.337261174752e-08       3.376336045961e-03      -1.275152559577e-05 
    5       9.655780006661e+02       2.788246238343e-02       8.541145710288e-06       2.691543793837e+00       8.207630281353e-08       3.256818907691e-03      -8.501030777267e-06 
    6       9.312260273078e+02       1.531016837187e-02       1.196296727630e-05       2.149826807155e+00       8.971217014182e-08       3.127807267224e-03      -3.941014102388e-06 
    7       9.084545910678e+02       8.194789922165e-03       1.595881803684e-05       1.669062763038e+00       9.646496988428e-08       2.998853567614e-03      -1.375472934243e-07 
    8       8.944986180589e+02       5.303101460817e-03       2.053027717298e-05       1.300408195990e+00       1.024787673139e-07       2.875204459625e-03       2.297832836231e-06 
    9       8.870515110695e+02       4.252633290699e-03       2.567905616780e-05       1.054401098421e+00       1.078504455280e-07       2.759521816292e-03       3.216586990657e-06 
   10       8.841887877926e+02       3.586128402666e-03       3.140696760684e-05       9.183994787759e-01       1.126415856349e-07       2.652131365240e-03       2.856551503583e-06 
   11       8.851690155786e+02       2.985073032435e-03       3.771589351894e-05       8.679940073623e-01       1.141729572933e-07       2.564006865695e-03       1.710919054416e-06 
   12       8.888635229950e+02       2.595901383433e-03       4.460775417823e-05       8.756222453820e-01       1.178757099010e-07       2.463159206667e-03       2.993210184296e-07 
   13       8.947385193392e+02       2.486650595299e-03       5.208447824777e-05       9.170528222968e-01       1.211873298335e-07       2.375186542392e-03      -8.993272883348e-07 
   14       9.022493877272e+02       2.563739537022e-03       6.014797507541e-05       9.743904144184e-01       1.241510907202e-07       2.283998456641e-03      -1.622429713807e-06 
   15       9.113571146627e+02       2.727483009137e-03       6.880010985374e-05       1.036738092616e+00       1.268032841892e-07       2.201563317058e-03      -1.781774146649e-06 
   16       9.215955043319e+02       2.973291117284e-03       7.804268223419e-05       1.099222366280e+00       1.291766227294e-07       2.124379201954e-03      -1.485125500377e-06 
   17       9.329087488058e+02       3.357418596414e-03       8.787740884404e-05       1.161479994045e+00       1.312986374711e-07       2.050946084811e-03      -9.479521086298e-07 
   18       9.449151347113e+02       3.921381092336e-03       9.830590827104e-05       1.225434128000e+00       1.331415640040e-07       1.980601836963e-03      -4.193696607809e-07 
   19       9.576991636474e+02       4.663304003180e-03       1.093297007542e-04       1.293159739620e+00       1.348800413044e-07       1.915417412781e-03      -5.308203494650e-08 
   20       9.711047195517e+02       5.562057231988e-03       1.209501843754e-04       1.366353960079e+00       1.363704978918e-07       1.853844897846e-03       3.643226647639e-08 
   21       9.851774852055e+02       6.611148958179e-03       1.331686610687e-04       1.444629741672e+00       1.377036356592e-07       1.795925572402e-03      -1.357692128945e-07 
   22       9.997737451631e+02       7.805915966623e-03       1.459863103130e-04       1.526124783235e+00       1.388535251194e-07       1.739586649564e-03      -4.636495520885e-07 
   23       1.014881120627e+03       9.144797843392e-03       1.594042276141e-04       1.607458251843e+00       1.398928961122e-07       1.685423357672e-03      -8.367077366114e-07 
   24       1.030373705934e+03       1.062597334417e-02       1.734233977722e-04       1.684438494616e+00       1.407719831773e-07       1.633424591438e-03      -1.124567221846e-06 
   25       1.046331161720e+03       1.225041814876e-02       1.880447478571e-04       1.754684202596e+00       1.415472953520e-07       1.584667713488e-03      -1.264395778077e-06 
   26       1.062753396728e+03       1.402229997800e-02       2.032691149021e-04       1.816473831794e+00       1.421965123048e-07       1.539229633459e-03      -1.231169264488e-06 
   27       1.079534572720e+03       1.596001857113e-02       2.190972960652e-04       1.869266154361e+00       1.427475449018e-07       1.496340318845e-03      -1.072231196665e-06 
   28       1.096474436655e+03       1.808625833187e-02       2.355300267459e-04       1.913144840629e+00       1.431629655362e-07       1.454151606511e-03      -8.745758149276e-07 
   29       1.113650164133e+03       2.041318012767e-02       2.525680585786e-04       1.948823872761e+00       1.435184866195e-07       1.413386979778e-03      -6.907392252596e-07 
   30       1.131143785846e+03       2.294952714843e-02       2.702120971166e-04       1.977539567108e+00       1.438353465544e-07       1.374981959158e-03      -5.732144927042e-07 
   31       1.148953525391e+03       2.570319908984e-02       2.884628017391e-04       2.000505324948e+00       1.440308966091e-07       1.339045860058e-03      -5.737054829699e-07 
   32       1.167097705683e+03       2.867999559694e-02       3.073208786223e-04       2.017109966685e+00       1.441514401763e-07       1.305427832210e-03      -6.765024266047e-07 
   33       1.185528115204e+03       3.188424022921e-02       3.267870233176e-04       2.026027433987e+00       1.442262792265e-07       1.273057288556e-03      -8.277949142496e-07 
   34       1.204144393018e+03       3.532006068453e-02       3.468619088614e-04       2.025827428096e+00       1.442178430140e-07       1.240302103646e-03      -9.617787655779e-07 
   35       1.222979117189e+03       3.899506879373e-02       3.675462241246e-04       2.015558201479e+00       1.441590363577e-07       1.207691866326e-03      -1.052976776271e-06 
   36       1.242064013671e+03       4.291792666035e-02       3.888406520550e-04       1.994350967664e+00       1.440569163443e-07       1.176318712365e-03      -1.086980596791e-06 
   37       1.261393085754e+03       4.709681359590e-02       4.107458513860e-04       1.961428512086e+00       1.438711744995e-07       1.147026665245e-03      -1.053470881030e-06 
   38       1.280985836476e+03       5.153748318409e-02       4.332624212014e-04       1.916680765182e+00       1.436414174598e-07       1.120074601006e-03      -9.676439174529e-07 
   39       1.300835593248e+03       5.624451485298e-02       4.563909272968e-04       1.860285614449e+00       1.434045168274e-07       1.095194346028e-03      -8.599261186405e-07 
   40       1.320886245252e+03       6.122177548560e-02       4.801319132590e-04       1.792565816890e+00       1.431467969236e-07       1.071558268623e-03      -7.724710387737e-07 
   41       1.341064517029e+03       6.647310503686e-02       5.044858681069e-04       1.713850477964e+00       1.428197831420e-07       1.048094204770e-03      -7.478590555264e-07 
   42       1.361401328423e+03       7.200475142393e-02       5.294531135824e-04       1.623984657236e+00       1.424467509087e-07       1.024873568681e-03      -7.845140189994e-07 
   43       1.381941606877e+03       7.782365152985e-02       5.550338822422e-04       1.522674544900e+00       1.420539145182e-07       1.002221041964e-03      -8.624556203406e-07 
   44       1.402708122951e+03       8.393677299098e-02       5.812283468239e-04       1.409619257403e+00       1.416337704545e-07       9.803277206577e-04      -9.533824901803e-07 
   45       1.423707254221e+03       9.035037616578e-02       6.080365807044e-04       1.284506621774e+00       1.411577251319e-07       9.592741375312e-04      -1.027589506853e-06 
   46       1.444953979630e+03       9.706752637659e-02       6.354584277724e-04       1.147002721905e+00       1.406507114020e-07       9.391853561209e-04      -1.081100206905e-06 
   47       1.466450280617e+03       1.040898455432e-01       6.634935917779e-04       9.967565589300e-01       1.401418035467e-07       9.200936417918e-04      -1.118729085859e-06 
   48       1.488175752548e+03       1.114181528330e-01       6.921416681659e-04       8.334007507764e-01       1.396391708684e-07       9.018670603950e-04      -1.147342174793e-06 
   49       1.510085678012e+03       1.190524263771e-01       7.214021407598e-04       6.565498112033e-01       1.391237372028e-07       8.841827844312e-04      -1.176102335486e-06 
   50       1.532131853859e+03       1.269924185105e-01       7.512743757969e-04       4.658440975156e-01       1.385615779845e-07       8.666523253159e-04      -1.214399877197e-06 
   51       1.554336206927e+03       1.352397871882e-01       7.817576098156e-04       2.610997095916e-01       1.379671447334e-07       8.493262621866e-04      -1.264015808822e-06 
   52       1.576733830042e+03       1.437964769417e-01       8.128509527484e-04       4.219630446916e-02       1.373612200670e-07       8.323436627218e-04      -1.324252113294e-06 
   53       1.599351139099e+03       1.526641085689e-01       8.445533869252e-04      -1.909645981322e-01       1.367510194464e-07       8.157867402662e-04      -1.393938524142e-06 
   54       1.622205017115e+03       1.618439716044e-01       8.768637636331e-04      -4.384591876561e-01       1.361264695448e-07       7.996707937575e-04      -1.471377134933e-06 
   55       1.645305175723e+03       1.713368799566e-01       9.097808773186e-04      -7.003462048482e-01       1.354688610937e-07       7.839760873219e-04      -1.554445327950e-06 
   56       1.668663887493e+03       1.811427140730e-01       9.433037176653e-04      -9.766838576598e-01       1.347921561292e-07       7.687827767918e-04      -1.641088329750e-06 
   57       1.692287172084e+03       1.912607518494e-01       9.774312741112e-04      -1.267516357670e+00       1.341144833833e-07       7.541670723789e-04      -1.728907546516e-06 
   58       1.716171075947e+03       2.016897829174e-01       1.012162463286e-03      -1.572868800002e+00       1.334450473391e-07       7.401563660763e-04      -1.814971663146e-06 
   59       1.740300941743e+03       2.124280957825e-01       1.047496128595e-03      -1.892746940500e+00       1.327818397775e-07       7.267220537301e-04      -1.895769993105e-06 
   60       1.764650677758e+03       2.234734649639e-01       1.083431039805e-03      -2.227136972914e+00       1.321091424705e-07       7.137720489352e-04      -1.967164227885e-06 
   61       1.789193838035e+03       2.348229073076e-01       1.119966033452e-03      -2.576004334212e+00       1.314058858113e-07       7.011929830132e-04      -2.025261470398e-06 
   62       1.813941421862e+03       2.464719161051e-01       1.157100471842e-03      -2.939290311251e+00       1.306818316930e-07       6.890119155631e-04      -2.069497498815e-06 
   63       1.838911300959e+03       2.584150314601e-01       1.194833886806e-03      -3.316914273573e+00       1.299525006667e-07       6.772748203255e-04      -2.100495846151e-06 
   64       1.864116808650e+03       2.706460361588e-01       1.233165851947e-03      -3.708774329430e+00       1.292283134919e-07       6.659975067744e-04      -2.119268117786e-06 
   65       1.889566384024e+03       2.831579354848e-01       1.272095986687e-03      -4.114747072131e+00       1.285133306014e-07       6.551616616575e-04      -2.127251302979e-06 
   66       1.915263216093e+03       2.959429370342e-01       1.311623960319e-03      -4.534687326380e+00       1.278038856527e-07       6.447107371251e-04      -2.126346342911e-06 
   67       1.941204887947e+03       3.089924305306e-01       1.351749496066e-03      -4.968427894626e+00       1.270871097945e-07       6.345456854472e-04      -2.118957955256e-06 
   68       1.967387495088e+03       3.222976833720e-01       1.392472438455e-03      -5.415784223402e+00       1.263473136646e-07       6.245606072243e-04      -2.107543892539e-06 
   69       1.993819764844e+03       3.358521360494e-01       1.433792962260e-03      -5.876570067306e+00       1.255920000651e-07       6.147726247360e-04      -2.093006956902e-06 
   70       2.020511171816e+03       3.496495377162e-01       1.475711413373e-03      -6.350584557862e+00       1.248333559671e-07       6.052232876097e-04      -2.075890837338e-06 
   71       2.047467479757e+03       3.636832697631e-01       1.518228254794e-03      -6.837607438815e+00       1.240805221211e-07       5.959401992307e-04      -2.056836108532e-06 
   72       2.074690500165e+03       3.779463439386e-01       1.561344072302e-03      -7.337398938308e+00       1.233388900281e-07       5.869352381881e-04      -2.036586397690e-06 
   73       2.102177850866e+03       3.924314004683e-01       1.605059580128e-03      -7.849699641062e+00       1.226093452518e-07       5.782027160680e-04      -2.015994706094e-06 
   74       2.129922714604e+03       4.071307061761e-01       1.649375626629e-03      -8.374230360542e+00       1.218874555239e-07       5.697174715947e-04      -1.996029885379e-06 
   75       2.157913597630e+03       4.220361526036e-01       1.694293199958e-03      -8.910692011143e+00       1.211626020955e-07       5.614329011195e-04      -1.977783268543e-06 
   76       2.186139356691e+03       4.371389826731e-01       1.739813354345e-03      -9.458777137183e+00       1.204226794563e-07       5.532994351545e-04      -1.962283435498e-06 
   77       2.214605871975e+03       4.524289172862e-01       1.785936960880e-03      -1.001820720962e+01       1.196723888391e-07       5.453304898195e-04      -1.949866057876e-06 
   78       2.243321990088e+03       4.678948653009e-01       1.832664921380e-03      -1.058870192994e+01       1.189198302818e-07       5.375507610342e-04      -1.940644857923e-06 
   79       2.272294394151e+03       4.835251735340e-01       1.879998247726e-03      -1.116996828610e+01       1.181710595926e-07       5.299763523990e-04      -1.934684086177e-06 
   80       2.301527470423e+03       4.993076193148e-01       1.927938065909e-03      -1.176170066376e+01       1.174296791178e-07       5.226138151266e-04      -1.931993495581e-06 
   81       2.331023174919e+03       5.152294030387e-01       1.976485620076e-03      -1.236358095746e+01       1.166964006845e-07       5.154591573073e-04      -1.932523161488e-06 
   82       2.360780900034e+03       5.312771407212e-01       2.025642276570e-03      -1.297527868185e+01       1.159685799984e-07       5.084968225083e-04      -1.936158147564e-06 
   83       2.390797341158e+03       5.474368565512e-01       2.075409527981e-03      -1.359645108287e+01       1.152397217785e-07       5.016986377079e-04      -1.942713017574e-06 
   84       2.421068687828e+03       5.636944139104e-01       2.125788971337e-03      -1.422673778613e+01       1.145025979428e-07       4.950350320649e-04      -1.951936154137e-06 
   85       2.451597906682e+03       5.800369068397e-01       2.176782229687e-03      -1.486574347893e+01       1.137610255031e-07       4.885143635801e-04      -1.963536708415e-06 
   86       2.482388426929e+03       5.964514866686e-01       2.228391024877e-03      -1.551305254779e+01       1.130209773552e-07       4.821513401634e-04      -1.977154005110e-06 
   87       2.513441830256e+03       6.129249439835e-01       2.280617205794e-03      -1.616823430523e+01       1.122870379841e-07       4.759550313348e-04      -1.992342681581e-06 
   88       2.544757756510e+03       6.294437085503e-01       2.333462751980e-03      -1.683084300911e+01       1.115621543898e-07       4.699283124455e-04      -2.008566955120e-06 
   89       2.576333809394e+03       6.459938492380e-01       2.386929777241e-03      -1.750041788202e+01       1.108473717001e-07       4.640672929124e-04      -2.025194747993e-06 
   90       2.608165462146e+03       6.625610739407e-01       2.441020533254e-03      -1.817648313075e+01       1.101415531138e-07       4.583607284689e-04      -2.041491670269e-06 
   91       2.640245963237e+03       6.791307295012e-01       2.495737413182e-03      -1.885854796559e+01       1.094410838143e-07       4.527894174285e-04      -2.056614860420e-06 
   92       2.672566242050e+03       6.956878016336e-01       2.551082955282e-03      -1.954610661978e+01       1.087395584949e-07       4.473255809650e-04      -2.069606683705e-06 
   93       2.705117591971e+03       7.122171718735e-01       2.607059936237e-03      -2.023864789771e+01       1.080304180227e-07       4.419423288542e-04      -2.079611420184e-06 
   94       2.737900386097e+03       7.287044328037e-01       2.663671659381e-03      -2.093568542001e+01       1.073165322578e-07       4.366459329159e-04      -2.086595965101e-06 
   95       2.770916504094e+03       7.451351958667e-01       2.720921716703e-03      -2.163673198435e+01       1.066028560120e-07       4.314496305753e-04      -2.090779193312e-06 
   96       2.804166616166e+03       7.614948486666e-01       2.778813907756e-03      -2.234129059013e+01       1.058935821449e-07       4.263638991133e-04      -2.092425357213e-06 
   97       2.837650126873e+03       7.777685584200e-01       2.837352244505e-03      -2.304885458867e+01       1.051920073465e-07       4.213961898042e-04      -2.091846655941e-06 
   98       2.871365118936e+03       7.939412754075e-01       2.896540956166e-03      -2.375890783340e+01       1.045003903055e-07       4.165506549675e-04      -2.089405858891e-06 
   99       2.905308297057e+03       8.099977364242e-01       2.956384494048e-03      -2.447092483007e+01       1.038198020988e-07       4.118278679310e-04      -2.085518983579e-06 
  100       2.939474931729e+03       8.259224682315e-01       3.016887536395e-03      -2.518437088694e+01       1.031499686395e-07       4.072245359085e-04      -2.080658027825e-06 
  101       2.973858803050e+03       8.416997910072e-01       3.078054993226e-03      -2.589870226498e+01       1.024891050202e-07       4.027332057892e-04      -2.075353756270e-06 
  102       3.008452144533e+03       8.573138217973e-01       3.139892011179e-03      -2.661336632803e+01       1.018337415883e-07       3.983419628406e-04      -2.070198541227e-06 
  103       3.043245586927e+03       8.727484779670e-01       3.202403978353e-03      -2.732780169307e+01       1.011785415906e-07       3.940341223240e-04      -2.065849257858e-06 
  104       3.078230077013e+03       8.879878668007e-01       3.265596347741e-03      -2.804144236460e+01       1.005182770168e-07       3.897938027517e-04      -2.062889287681e-06 
  105       3.113403050257e+03       9.030175068102e-01       3.329474069955e-03      -2.875373045058e+01       9.985480238872e-08       3.856246349639e-04      -2.061376002521e-06 
  106       3.148762991125e+03       9.178232786094e-01       3.394042092542e-03      -2.946410545230e+01       9.919158923339e-08       3.815342440320e-04      -2.061207356415e-06 
  107       3.184307498492e+03       9.323910610990e-01       3.459305537356e-03      -3.017200062507e+01       9.853165115249e-08       3.775285533360e-04      -2.062253269684e-06 
