# total lensed [l(l+1)/2pi] C_l's (units: [microK]^2)
# for l=2 to 2500, i.e. number of multipoles equal to 2499
#
# -> if you don't want to see such a header, set 'headers' to 'no' in input file
# -> for CMB lensing (d), these are C_l^dd for the deflection field.
#    Remember the conversion factors:
#    C_l^dd (deflection) = l(l+1) C_l^phi-phi
#    C_l^gg (shear/convergence) = 1/4 (l(l+1))^2 C_l^phi-phi
#
# 1:l     2:TT                     3:EE                     4:BB                     5:TE                     6:dd                     7:dT                     8:dE                 
    2       1.156080186557e+03       3.965532654229e-02       1.706685958327e-06       3.017169563961e+00       5.143203961146e-08       3.476134763462e-03      -1.439084445585e-05 
    3       1.082040720471e+03       5.009631058339e-02       3.414167300787e-06       3.403779513486e+00       6.337306455366e-08       3.466766028831e-03      -1.528266360147e-05 
    4       1.015261267288e+03       4.259425137225e-02       5.692029250292e-06       3.177010649730e+00       7.337318456039e-08       3.376362248599e-03      -1.275162502069e-05 
    5       9.655855231709e+02       2.788267985845e-02       8.541285229030e-06       2.691564780026e+00       8.207694202445e-08       3.256844127097e-03      -8.501097060344e-06 
    6       9.312332856539e+02       1.531028784877e-02       1.196316268691e-05       2.149843569551e+00       8.971286802684e-08       3.127831468248e-03      -3.941044830448e-06 
    7       9.084616732114e+02       8.194853953916e-03       1.595907871317e-05       1.669075776807e+00       9.646571796855e-08       2.998876747108e-03      -1.375483665087e-07 
    8       8.945055880167e+02       5.303142984831e-03       2.053061251362e-05       1.300418335226e+00       1.024795621732e-07       2.875226664674e-03       2.297850751656e-06 
    9       8.870584173491e+02       4.252666668068e-03       2.567947559814e-05       1.054409319693e+00       1.078512840949e-07       2.759543082413e-03       3.216612071982e-06 
   10       8.841956803688e+02       3.586156632124e-03       3.140748058057e-05       9.184066397526e-01       1.126424598902e-07       2.652151751689e-03       2.856573778420e-06 
   11       8.851759168916e+02       2.985096629246e-03       3.771650951908e-05       8.680007750430e-01       1.141738471449e-07       2.564026653775e-03       1.710932392514e-06 
   12       8.888704489315e+02       2.595922004642e-03       4.460848271764e-05       8.756290721800e-01       1.178766289961e-07       2.463178174775e-03       2.993233485489e-07 
   13       8.947454818929e+02       2.486670428462e-03       5.208532886923e-05       9.170599725787e-01       1.211882748734e-07       2.375204812791e-03      -8.993342972920e-07 
   14       9.022564224153e+02       2.563760040059e-03       6.014895735121e-05       9.743980122482e-01       1.241520587387e-07       2.284016076399e-03      -1.622442358389e-06 
   15       9.113642233605e+02       2.727504862725e-03       6.880123338488e-05       1.036746175990e+00       1.268042729488e-07       2.201580324335e-03      -1.781788042539e-06 
   16       9.216026908701e+02       2.973314966301e-03       7.804395664929e-05       1.099230935973e+00       1.291776301306e-07       2.124395552006e-03      -1.485137088737e-06 
   17       9.329160053471e+02       3.357445524405e-03       8.787884379795e-05       1.161489049504e+00       1.312996615578e-07       2.050961755685e-03      -9.479594966782e-07 
   18       9.449224875648e+02       3.921412506525e-03       9.830751344322e-05       1.225443682994e+00       1.331426025942e-07       1.980616945845e-03      -4.193729234951e-07 
   19       9.577066308593e+02       4.663341296186e-03       1.093314858471e-04       1.293169822765e+00       1.348810935024e-07       1.915432069312e-03      -5.308244826467e-08 
   20       9.711122891054e+02       5.562101631706e-03       1.209521591127e-04       1.366364612244e+00       1.363715616226e-07       1.853859087318e-03       3.643254629086e-08 
   21       9.851851538892e+02       6.611201641886e-03       1.331708351933e-04       1.444641002842e+00       1.377047096693e-07       1.795939275763e-03      -1.357702748041e-07 
   22       9.997815282903e+02       7.805978075222e-03       1.459886935857e-04       1.526136681453e+00       1.388546081658e-07       1.739599876929e-03      -4.636531642438e-07 
   23       1.014889028884e+03       9.144870505605e-03       1.594068298117e-04       1.607470785900e+00       1.398939874392e-07       1.685436147906e-03      -8.367142525692e-07 
   24       1.030381737245e+03       1.062605767450e-02       1.734262286863e-04       1.684451626657e+00       1.407730814094e-07       1.633436992039e-03      -1.124575986865e-06 
   25       1.046339315392e+03       1.225051526933e-02       1.880478172929e-04       1.754697879090e+00       1.415483995844e-07       1.584679733507e-03      -1.264405641505e-06 
   26       1.062761676749e+03       1.402241104340e-02       2.032724326772e-04       1.816487990375e+00       1.421976216117e-07       1.539241224676e-03      -1.231178869413e-06 
   27       1.079542983233e+03       1.596014487946e-02       2.191008720089e-04       1.869280727224e+00       1.427486585620e-07       1.496351485181e-03      -1.072239557237e-06 
   28       1.096482980132e+03       1.808640135806e-02       2.355338706986e-04       1.913159757660e+00       1.431640824505e-07       1.454162434989e-03      -8.745826303294e-07 
   29       1.113658843847e+03       2.041334144143e-02       2.525721803918e-04       1.948839068781e+00       1.435196062697e-07       1.413397551810e-03      -6.907446048864e-07 
   30       1.131152606017e+03       2.294970838755e-02       2.702165066526e-04       1.977554986686e+00       1.438364686192e-07       1.374992297170e-03      -5.732189532507e-07 
   31       1.148962490083e+03       2.570340195361e-02       2.884675088700e-04       2.000520922376e+00       1.440320201698e-07       1.339055913769e-03      -5.737099425552e-07 
   32       1.167106816845e+03       2.868022182990e-02       3.073258932313e-04       2.017125692150e+00       1.441525647129e-07       1.305437560147e-03      -6.765076840657e-07 
   33       1.185537371002e+03       3.188449160969e-02       3.267923552983e-04       2.026043228264e+00       1.442274044887e-07       1.273066691293e-03      -8.278013549525e-07 
   34       1.204153788005e+03       3.532033902311e-02       3.468675681181e-04       2.025843221514e+00       1.442189684949e-07       1.240311223784e-03      -9.617862678963e-07 
   35       1.222988648605e+03       3.899537596023e-02       3.675522205721e-04       2.015573915867e+00       1.441601617733e-07       1.207700744406e-03      -1.052985018365e-06 
   36       1.242073683728e+03       4.291826459198e-02       3.888469956189e-04       1.994366516203e+00       1.440580413811e-07       1.176327363967e-03      -1.086989139032e-06 
   37       1.261402901377e+03       4.709718429347e-02       4.107525520022e-04       1.961443800199e+00       1.438722984307e-07       1.147035077011e-03      -1.053479196748e-06 
   38       1.280995805733e+03       5.153788869321e-02       4.332694888149e-04       1.916695697940e+00       1.436425398681e-07       1.120082764481e-03      -9.676515951471e-07 
   39       1.300845723957e+03       5.624495725495e-02       4.563983718614e-04       1.860300099678e+00       1.434056376337e-07       1.095202269798e-03      -8.599329813602e-07 
   40       1.320896544399e+03       6.122225689181e-02       4.801397447368e-04       1.792579766634e+00       1.431479160226e-07       1.071565981284e-03      -7.724772350442e-07 
   41       1.341074990096e+03       6.647362758865e-02       5.044940964674e-04       1.713863808459e+00       1.428209001393e-07       1.048101752522e-03      -7.478650634839e-07 
   42       1.361411978540e+03       7.200531731133e-02       5.294617487996e-04       1.623997283585e+00       1.424478655870e-07       1.024880993036e-03      -7.845203077709e-07 
   43       1.381952434003e+03       7.782426299699e-02       5.550429342930e-04       1.522686379472e+00       1.420550268153e-07       1.002228368104e-03      -8.624625096113e-07 
   44       1.402719123027e+03       8.393743233632e-02       5.812378256875e-04       1.409630209643e+00       1.416348801739e-07       9.803349495931e-04      -9.533900874443e-07 
   45       1.423718419708e+03       9.035108573658e-02       6.080464963602e-04       1.284516598228e+00       1.411588317671e-07       9.592812447307e-04      -1.027597696251e-06 
   46       1.444965304820e+03       9.706828854384e-02       6.354687901961e-04       1.147011626976e+00       1.406518146128e-07       9.391923156981e-04      -1.081108840669e-06 
   47       1.466461763496e+03       1.040906626903e-01       6.635044109397e-04       9.967642950856e-01       1.401429032125e-07       9.201004346258e-04      -1.118738049112e-06 
   48       1.488187395380e+03       1.114190273495e-01       6.921529540281e-04       8.334072185404e-01       1.396402669307e-07       9.018736758120e-04      -1.147351399911e-06 
   49       1.510097487939e+03       1.190533606522e-01       7.214139032753e-04       6.565549091410e-01       1.391248294595e-07       8.841892220371e-04      -1.176111818172e-06 
   50       1.532143841985e+03       1.269934149310e-01       7.512866249070e-04       4.658477220836e-01       1.385626659809e-07       8.666585948888e-04      -1.214409677857e-06 
   51       1.554348382259e+03       1.352408481539e-01       7.817703554481e-04       2.611017545568e-01       1.379682281408e-07       8.493323764224e-04      -1.264025998276e-06 
   52       1.576746197222e+03       1.437976048677e-01       8.128642048157e-04       4.219666062873e-02       1.373622987391e-07       8.323496345249e-04      -1.324262754899e-06 
   53       1.599363697519e+03       1.526653058830e-01       8.445671553221e-04      -1.909660431266e-01       1.367520933227e-07       8.157925817623e-04      -1.393949670138e-06 
   54       1.622217759990e+03       1.618452407447e-01       8.768780582345e-04      -4.384625494870e-01       1.361275385268e-07       7.996765151660e-04      -1.471388822378e-06 
   55       1.645318090918e+03       1.713382233676e-01       9.097957079788e-04      -7.003516019813e-01       1.354699249781e-07       7.839816962245e-04      -1.554457577003e-06 
   56       1.668676964259e+03       1.811441341979e-01       9.433190942214e-04      -9.766914083238e-01       1.347932148224e-07       7.687882791201e-04      -1.641101151094e-06 
   57       1.692300403264e+03       1.912622511254e-01       9.774472063833e-04      -1.267526178716e+00       1.341155369177e-07       7.541724720573e-04      -1.728920942246e-06 
   58       1.716184458540e+03       2.016913637715e-01       1.012178961076e-03      -1.572881006446e+00       1.334460957963e-07       7.401616640763e-04      -1.814985625036e-06 
   59       1.740314477487e+03       2.124297606282e-01       1.047513201686e-03      -1.892761645052e+00       1.327828831927e-07       7.267272470205e-04      -1.895784500715e-06 
   60       1.764664373733e+03       2.234752161964e-01       1.083448697959e-03      -2.227154285488e+00       1.321101807157e-07       7.137771293227e-04      -1.967179246523e-06 
   61       1.789207706152e+03       2.348247472983e-01       1.119984286412e-03      -2.576024362168e+00       1.314069185548e-07       7.011979376921e-04      -2.025276951017e-06 
   62       1.813955474636e+03       2.464738471905e-01       1.157119329340e-03      -2.939313162046e+00       1.306828586779e-07       6.890167337341e-04      -2.069513384873e-06 
   63       1.838925550204e+03       2.584170559344e-01       1.194853358567e-03      -3.316940055519e+00       1.299535217709e-07       6.772794955735e-04      -2.100512075561e-06 
   64       1.864131265229e+03       2.706481562680e-01       1.233185947690e-03      -3.708803151762e+00       1.292293286948e-07       6.660020378505e-04      -2.119284622991e-06 
   65       1.889581057583e+03       2.831601534208e-01       1.272116716122e-03      -4.114779045076e+00       1.285143399408e-07       6.551660533164e-04      -2.127268011068e-06 
   66       1.915278114786e+03       2.959452549287e-01       1.311645333154e-03      -4.534722561244e+00       1.278048891725e-07       6.447150010204e-04      -2.126363175772e-06 
   67       1.941220018152e+03       3.089948504487e-01       1.351771522003e-03      -4.968466503883e+00       1.270881074813e-07       6.345498410843e-04      -2.118974829759e-06 
   68       1.967402861286e+03       3.223002073112e-01       1.392495127195e-03      -5.415826320114e+00       1.263483054249e-07       6.245646809942e-04      -2.107560722887e-06 
   69       1.993835370091e+03       3.358547659555e-01       1.433816323506e-03      -5.876615762363e+00       1.255929858704e-07       6.147766423658e-04      -2.093023664135e-06 
   70       2.020527017717e+03       3.496522754856e-01       1.475735456832e-03      -6.350633958969e+00       1.248343358767e-07       6.052272713156e-04      -2.075907353913e-06 
   71       2.047483566270e+03       3.636861172398e-01       1.518252990182e-03      -6.837660650115e+00       1.240814962539e-07       5.959441665920e-04      -2.056852381172e-06 
   72       2.074706825387e+03       3.779493029111e-01       1.561369509342e-03      -7.337456059991e+00       1.233398585286e-07       5.869392009266e-04      -2.036602390444e-06 
   73       2.102194410820e+03       3.924344726669e-01       1.605085728556e-03      -7.849760768958e+00       1.226103082491e-07       5.782066787306e-04      -2.016010403629e-06 
   74       2.129939503009e+03       4.071338932696e-01       1.649402496193e-03      -8.374295585720e+00       1.218884130835e-07       5.697214301360e-04      -1.996045296499e-06 
   75       2.157930605671e+03       4.220394561963e-01       1.694320800420e-03      -8.910761419483e+00       1.211635541642e-07       5.614368413815e-04      -1.977798429935e-06 
   76       2.186156573615e+03       4.371424043004e-01       1.739841695487e-03      -9.458850809885e+00       1.204236258516e-07       5.533033337086e-04      -1.962298409553e-06 
   77       2.214623288380e+03       4.524324584036e-01       1.785966052494e-03      -1.001828522670e+01       1.196733294089e-07       5.453343228885e-04      -1.949880910239e-06 
   78       2.243339599001e+03       4.678985272786e-01       1.832694773271e-03      -1.058878437128e+01       1.189207649410e-07       5.375545073405e-04      -1.940659650237e-06 
   79       2.272312191316e+03       4.835289576525e-01       1.880028869713e-03      -1.117005523158e+01       1.181719883090e-07       5.299799937760e-04      -1.934698874399e-06 
   80       2.301545454601e+03       4.993115267606e-01       1.927969467828e-03      -1.176179219345e+01       1.174306018955e-07       5.226173371720e-04      -1.932008328168e-06 
   81       2.331041348196e+03       5.152334348998e-01       1.976517811779e-03      -1.236367715179e+01       1.166973175440e-07       5.154625500805e-04      -1.932538077447e-06 
   82       2.360799268138e+03       5.312812979829e-01       2.025675267930e-03      -1.297537962179e+01       1.159694909533e-07       5.085000812728e-04      -1.936173174357e-06 
   83       2.390815913787e+03       5.474411400917e-01       2.075443328892e-03      -1.359655685015e+01       1.152406268089e-07       5.017017637196e-04      -1.942728168883e-06 
   84       2.421087478088e+03       5.636988244988e-01       2.125823591715e-03      -1.422684846236e+01       1.145034969891e-07       4.950380323513e-04      -1.951951430454e-06 
   85       2.451616927668e+03       5.800414451441e-01       2.176817679473e-03      -1.486585914136e+01       1.137619185415e-07       4.885172472948e-04      -1.963552107265e-06 
   86       2.482407690709e+03       5.964561532553e-01       2.228427314037e-03      -1.551317326794e+01       1.130218644108e-07       4.821541176030e-04      -1.977169523751e-06 
   87       2.513461347695e+03       6.129297393144e-01       2.280654344322e-03      -1.616836014843e+01       1.122879191207e-07       4.759577139362e-04      -1.992358316938e-06 
   88       2.544777537100e+03       6.294486329800e-01       2.333500749898e-03      -1.683097403416e+01       1.115630296965e-07       4.699309127780e-04      -2.008582703701e-06 
   89       2.576353861067e+03       6.459989030105e-01       2.386968644603e-03      -1.750055414075e+01       1.108482412769e-07       4.640698246661e-04      -2.025210605808e-06 
   90       2.608185791092e+03       6.625662571868e-01       2.441060280148e-03      -1.817662466757e+01       1.101424170543e-07       4.583632064379e-04      -2.041507632738e-06 
   91       2.640266573706e+03       6.791360422354e-01       2.495778049732e-03      -1.885869481711e+01       1.094419421864e-07       4.527918574905e-04      -2.056630922274e-06 
   92       2.672587136157e+03       6.956932437508e-01       2.551124491648e-03      -1.954625881435e+01       1.087404113190e-07       4.473280000554e-04      -2.069622838885e-06 
   93       2.705138769875e+03       7.122227431491e-01       2.607102382624e-03      -2.023880545617e+01       1.080312652697e-07       4.419447444444e-04      -2.079627661749e-06 
   94       2.737921847390e+03       7.287101329013e-01       2.663715026043e-03      -2.093584836039e+01       1.073173739209e-07       4.366483608873e-04      -2.086612285213e-06 
   95       2.770938248156e+03       7.451410243390e-01       2.720966013949e-03      -2.163690032317e+01       1.066036921218e-07       4.314520843286e-04      -2.090795583147e-06 
   96       2.804188642148e+03       7.615008049535e-01       2.778859145958e-03      -2.234146434262e+01       1.058944127626e-07       4.263663891109e-04      -2.092441806853e-06 
   97       2.837672433678e+03       7.777746418476e-01       2.837398434095e-03      -2.304903376894e+01       1.051928325562e-07       4.213987230870e-04      -2.091863154246e-06 
   98       2.871387705206e+03       7.939474851860e-01       2.896588107644e-03      -2.375909245464e+01       1.045012102055e-07       4.165532346436e-04      -2.089422393381e-06 
   99       2.905331161152e+03       8.100040716468e-01       2.956432617984e-03      -2.447111490479e+01       1.038206167911e-07       4.118304926374e-04      -2.085535540295e-06 
  100       2.939498071709e+03       8.259289278726e-01       3.016936643431e-03      -2.518456642713e+01       1.031507782184e-07       4.072271992442e-04      -2.080674591187e-06 
  101       2.973882216657e+03       8.417063739212e-01       3.078105094083e-03      -2.589890328239e+01       1.024899095594e-07       4.027358957193e-04      -2.075370308934e-06 
  102       3.008475829172e+03       8.573205267171e-01       3.139943116660e-03      -2.661357283438e+01       1.018345411265e-07       3.983446610709e-04      -2.070215063925e-06 
  103       3.043269539644e+03       8.727553035025e-01       3.202456099344e-03      -2.732801370028e+01       1.011793361160e-07       3.940368036459e-04      -2.065865729238e-06 
  104       3.078254294617e+03       8.879948114400e-01       3.265649495216e-03      -2.804165988392e+01       1.005190664681e-07       3.897964361169e-04      -2.062905685022e-06 
  105       3.113427529865e+03       9.030245689277e-01       3.329528254963e-03      -2.875395348812e+01       9.985558671798e-08       3.856271902188e-04      -2.061392305301e-06 
  106       3.148787730345e+03       9.178304564681e-01       3.394097326207e-03      -2.946433400762e+01       9.919236842096e-08       3.815366940791e-04      -2.061223547592e-06 
  107       3.184332495460e+03       9.323983528503e-01       3.459361830884e-03      -3.017223469097e+01       9.853242520369e-08       3.775308746594e-04      -2.062269336157e-06 
