# total lensed [l(l+1)/2pi] C_l's (units: [microK]^2)
# for l=2 to 2500, i.e. number of multipoles equal to 2499
#
# -> if you don't want to see such a header, set 'headers' to 'no' in input file
# -> for CMB lensing (d), these are C_l^dd for the deflection field.
#    Remember the conversion factors:
#    C_l^dd (deflection) = l(l+1) C_l^phi-phi
#    C_l^gg (shear/convergence) = 1/4 (l(l+1))^2 C_l^phi-phi
#
# 1:l     2:TT                     3:EE                     4:BB                     5:TE                     6:dd                     7:dT                     8:dE                 
    2       1.156081215671e+03       3.965536183778e-02       1.706688898542e-06       3.017172249162e+00       5.143208369072e-08       3.476137833684e-03      -1.439085726403e-05 
    3       1.082041682501e+03       5.009635517293e-02       3.414173181261e-06       3.403782542754e+00       6.337311791509e-08       3.466769083037e-03      -1.528267720340e-05 
    4       1.015262169688e+03       4.259428928668e-02       5.692039051223e-06       3.177013477198e+00       7.337324344012e-08       3.376365164875e-03      -1.275163636971e-05 
    5       9.655863827194e+02       2.788270468163e-02       8.541299930797e-06       2.691567175430e+00       8.207700547227e-08       3.256846895501e-03      -8.501104626304e-06 
    6       9.312341143822e+02       1.531030148510e-02       1.196318327021e-05       2.149845482750e+00       8.971293750881e-08       3.127834091732e-03      -3.941048338662e-06 
    7       9.084624801730e+02       8.194861260666e-03       1.595910615923e-05       1.669077262132e+00       9.646579490253e-08       2.998879277140e-03      -1.375484896951e-07 
    8       8.945063816281e+02       5.303147721680e-03       2.053064780444e-05       1.300419492723e+00       1.024796443755e-07       2.875229076245e-03       2.297852798142e-06 
    9       8.870592091890e+02       4.252670474219e-03       2.567951971683e-05       1.054410258271e+00       1.078513680329e-07       2.759545342957e-03       3.216614936987e-06 
   10       8.841964693437e+02       3.586159849779e-03       3.140753451167e-05       9.184074568090e-01       1.126425427600e-07       2.652153809168e-03       2.856576318700e-06 
   11       8.851766989083e+02       2.985099317123e-03       3.771657424905e-05       8.680015470987e-01       1.141739352297e-07       2.564028686945e-03       1.710933911459e-06 
   12       8.888712328903e+02       2.595924351792e-03       4.460855923524e-05       8.756298519248e-01       1.178767188458e-07       2.463180133109e-03       2.993236178584e-07 
   13       8.947462777904e+02       2.486672684487e-03       5.208541816601e-05       9.170607892133e-01       1.211883657458e-07       2.375206705267e-03      -8.993350918571e-07 
   14       9.022572225587e+02       2.563762371275e-03       6.014906042194e-05       9.743988789977e-01       1.241521503902e-07       2.284017767145e-03      -1.622443805525e-06 
   15       9.113650240020e+02       2.727507346731e-03       6.880135122803e-05       1.036747098145e+00       1.268043653687e-07       2.201581780511e-03      -1.781789635558e-06 
   16       9.216034951061e+02       2.973317676588e-03       7.804409026738e-05       1.099231915487e+00       1.291777231262e-07       2.124396926366e-03      -1.485138407230e-06 
   17       9.329168361577e+02       3.357448584589e-03       8.787899419788e-05       1.161490084513e+00       1.312997549311e-07       2.050963156393e-03      -9.479603291956e-07 
   18       9.449233308997e+02       3.921416077127e-03       9.830768163656e-05       1.225444773221e+00       1.331426961774e-07       1.980618227873e-03      -4.193732998818e-07 
   19       9.577074749551e+02       4.663345536060e-03       1.093316728502e-04       1.293170972392e+00       1.348811873976e-07       1.915433148304e-03      -5.308251484293e-08 
   20       9.711131430600e+02       5.562106680929e-03       1.209523659466e-04       1.366365829471e+00       1.363716560109e-07       1.853860090455e-03       3.643257629491e-08 
   21       9.851860256973e+02       6.611207634754e-03       1.331710628840e-04       1.444642292003e+00       1.377048045987e-07       1.795940303235e-03      -1.357703743686e-07 
   22       9.997824170651e+02       7.805985141865e-03       1.459889431636e-04       1.526138040617e+00       1.388547032243e-07       1.739600892484e-03      -4.636535735633e-07 
   23       1.014889931594e+03       9.144878774762e-03       1.594071023114e-04       1.607472214576e+00       1.398940823634e-07       1.685437096420e-03      -8.367150226036e-07 
   24       1.030382651414e+03       1.062606727330e-02       1.734265251460e-04       1.684453126868e+00       1.407731762456e-07       1.633437846392e-03      -1.124576994672e-06 
   25       1.046340242235e+03       1.225052632577e-02       1.880481387541e-04       1.754699445995e+00       1.415484942594e-07       1.584680478622e-03      -1.264406739344e-06 
   26       1.062762621207e+03       1.402242368924e-02       2.032727801838e-04       1.816489610356e+00       1.421977156640e-07       1.539241855930e-03      -1.231179948143e-06 
   27       1.079543946843e+03       1.596015926274e-02       2.191012466066e-04       1.869282389263e+00       1.427487517403e-07       1.496352020318e-03      -1.072240527110e-06 
   28       1.096483959116e+03       1.808641764696e-02       2.355342734338e-04       1.913161456804e+00       1.431641749286e-07       1.454162916508e-03      -8.745834265759e-07 
   29       1.113659834638e+03       2.041335981495e-02       2.525726123113e-04       1.948840801179e+00       1.435196983225e-07       1.413398018338e-03      -6.907452099283e-07 
   30       1.131153607299e+03       2.294972903250e-02       2.702169688023e-04       1.977556748059e+00       1.438365603535e-07       1.374992766548e-03      -5.732194215026e-07 
   31       1.148963502891e+03       2.570342506386e-02       2.884680022943e-04       2.000522707737e+00       1.440321113803e-07       1.339056376125e-03      -5.737104034030e-07 
   32       1.167107842793e+03       2.868024760449e-02       3.073264189725e-04       2.017127494909e+00       1.441526552094e-07       1.305437990210e-03      -6.765082530852e-07 
   33       1.185538411675e+03       3.188452025149e-02       3.267929143959e-04       2.026045039669e+00       1.442274942022e-07       1.273067049942e-03      -8.278020869484e-07 
   34       1.204154844980e+03       3.532037073864e-02       3.468681616080e-04       2.025845030690e+00       1.442190574575e-07       1.240311462112e-03      -9.617871440926e-07 
   35       1.222989724023e+03       3.899541096281e-02       3.675528494868e-04       2.015575711488e+00       1.441602500563e-07       1.207700835717e-03      -1.052985995399e-06 
   36       1.242074780502e+03       4.291830310268e-02       3.888476609867e-04       1.994368287106e+00       1.440581290236e-07       1.176327323010e-03      -1.086990163737e-06 
   37       1.261404022885e+03       4.709722654064e-02       4.107532548471e-04       1.961445535700e+00       1.438723853946e-07       1.147034962466e-03      -1.053480209717e-06 
   38       1.280996954271e+03       5.153793491025e-02       4.332702301575e-04       1.916697388560e+00       1.436426261447e-07       1.120082638543e-03      -9.676525479156e-07 
   39       1.300846899985e+03       5.624500767923e-02       4.563991527191e-04       1.860301737626e+00       1.434057232636e-07       1.095202181185e-03      -8.599338473629e-07 
   40       1.320897746089e+03       6.122231176402e-02       4.801405661234e-04       1.792581346215e+00       1.431480010689e-07       1.071565957611e-03      -7.724780186047e-07 
   41       1.341076213521e+03       6.647368715280e-02       5.044949593933e-04       1.713865325698e+00       1.428209846575e-07       1.048101796328e-03      -7.478658008201e-07 
   42       1.361413220131e+03       7.200538181710e-02       5.294626542739e-04       1.623998733138e+00       1.424479496065e-07       1.024881093771e-03      -7.845210362203e-07 
   43       1.381953691422e+03       7.782433270043e-02       5.550438833239e-04       1.522687753398e+00       1.420551102993e-07       1.002228503975e-03      -8.624632553835e-07 
   44       1.402720395451e+03       8.393750749994e-02       5.812388192827e-04       1.409631496890e+00       1.416349629620e-07       9.803350850513e-04      -9.533908607020e-07 
   45       1.423719707657e+03       9.035116662864e-02       6.080475355275e-04       1.284517784749e+00       1.411589135552e-07       9.592813319169e-04      -1.027598490380e-06 
   46       1.444966608422e+03       9.706837543521e-02       6.354698759447e-04       1.147012698062e+00       1.406518951077e-07       9.391923105453e-04      -1.081109647966e-06 
   47       1.466463081881e+03       1.040907558530e-01       6.635055442808e-04       9.967652360948e-01       1.401429821915e-07       9.201003043453e-04      -1.118738866233e-06 
   48       1.488188726482e+03       1.114191270560e-01       6.921541359757e-04       8.334080150150e-01       1.396403442594e-07       9.018734031673e-04      -1.147352229242e-06 
   49       1.510098828298e+03       1.190534671746e-01       7.214151348472e-04       6.565555469372e-01       1.391249051124e-07       8.841888101135e-04      -1.176112669354e-06 
   50       1.532145187262e+03       1.269935285408e-01       7.512879071248e-04       4.658481874715e-01       1.385627400396e-07       8.666580679361e-04      -1.214410567602e-06 
   51       1.554349730178e+03       1.352409691244e-01       7.817716893366e-04       2.611020342172e-01       1.379683007106e-07       8.493317657522e-04      -1.264026943870e-06 
   52       1.576747548730e+03       1.437977334742e-01       8.128655914030e-04       4.219674173717e-02       1.373623699062e-07       8.323489742395e-04      -1.324263771751e-06 
   53       1.599365057290e+03       1.526654424027e-01       8.445685956403e-04      -1.909661727793e-01       1.367521631271e-07       8.157919083480e-04      -1.393950770890e-06 
   54       1.622219136954e+03       1.618453854564e-01       8.768795533202e-04      -4.384629013695e-01       1.361276069286e-07       7.996758670103e-04      -1.471390015911e-06 
   55       1.645319497506e+03       1.713383765513e-01       9.097972588727e-04      -7.003521869179e-01       1.354699918491e-07       7.839811112632e-04      -1.554458867944e-06 
   56       1.668678411368e+03       1.811442961335e-01       9.433207019648e-04      -9.766922373347e-01       1.347932800389e-07       7.687877862332e-04      -1.641102541281e-06 
   57       1.692301898481e+03       1.912624220921e-01       9.774488720171e-04      -1.267527263289e+00       1.341156003903e-07       7.541720862805e-04      -1.728922430773e-06 
   58       1.716186005552e+03       2.016915440474e-01       1.012180685641e-03      -1.572882358601e+00       1.334461574735e-07       7.401613831125e-04      -1.814987207717e-06 
   59       1.740316075467e+03       2.124299504895e-01       1.047514986221e-03      -1.892763277409e+00       1.327829430647e-07       7.267270474337e-04      -1.895786169508e-06 
   60       1.764666016694e+03       2.234754159174e-01       1.083450543503e-03      -2.227156211339e+00       1.321102388180e-07       7.137769624036e-04      -1.967180988902e-06 
   61       1.789209383566e+03       2.348249571502e-01       1.119986194001e-03      -2.576026595446e+00       1.314069749649e-07       7.011977318550e-04      -2.025278750471e-06 
   62       1.813957176220e+03       2.464740674401e-01       1.157121300006e-03      -2.939315716952e+00       1.306829134914e-07       6.890164199034e-04      -2.069515225328e-06 
   63       1.838927267431e+03       2.584172868430e-01       1.194855393335e-03      -3.316942946420e+00       1.299535750890e-07       6.772790166631e-04      -2.100513943106e-06 
   64       1.864132991642e+03       2.706483980906e-01       1.233188047577e-03      -3.708806393189e+00       1.292293806151e-07       6.660013523228e-04      -2.119286506609e-06 
   65       1.889582789131e+03       2.831604064055e-01       1.272118882139e-03      -4.114782651722e+00       1.285143905469e-07       6.551651390552e-04      -2.127269903430e-06 
   66       1.915279850167e+03       2.959455193158e-01       1.311647566301e-03      -4.534726547965e+00       1.278049385219e-07       6.447138595260e-04      -2.126365074099e-06 
   67       1.941221759169e+03       3.089951264697e-01       1.351773823270e-03      -4.968470885694e+00       1.270881555911e-07       6.345485020021e-04      -2.118976736759e-06 
   68       1.967404612544e+03       3.223004951894e-01       1.392497497563e-03      -5.415831111962e+00       1.263483522691e-07       6.245632004392e-04      -2.107562646345e-06 
   69       1.993837136504e+03       3.358550659088e-01       1.433818763950e-03      -5.876620978171e+00       1.255930314222e-07       6.147750796295e-04      -2.093025611849e-06 
   70       2.020528803784e+03       3.496525877275e-01       1.475737968322e-03      -6.350639611262e+00       1.248343801203e-07       6.052256812769e-04      -2.075909332013e-06 
   71       2.047485375981e+03       3.636864419793e-01       1.518255573681e-03      -6.837666749850e+00       1.240815391837e-07       5.959425979758e-04      -2.056854393689e-06 
   72       2.074708662133e+03       3.779496403522e-01       1.561372165809e-03      -7.337462616383e+00       1.233399001482e-07       5.869376944150e-04      -2.036604438853e-06 
   73       2.102196277289e+03       3.924348230086e-01       1.605088458942e-03      -7.849767789306e+00       1.226103485700e-07       5.782052649219e-04      -2.016012486352e-06 
   74       2.129941401090e+03       4.071342567058e-01       1.649405301443e-03      -8.374303075217e+00       1.218884521239e-07       5.697201273474e-04      -1.996047408376e-06 
   75       2.157932536343e+03       4.220398329157e-01       1.694323681476e-03      -8.910769381030e+00       1.211635919467e-07       5.614356532911e-04      -1.977800561657e-06 
   76       2.186158536990e+03       4.371427944852e-01       1.739844653280e-03      -9.458859244555e+00       1.204236624017e-07       5.533022499533e-04      -1.962300547900e-06 
   77       2.214625284219e+03       4.524328622259e-01       1.785969087962e-03      -1.001829413632e+01       1.196733647562e-07       5.453333298493e-04      -1.949883041108e-06 
   78       2.243341626832e+03       4.678989448987e-01       1.832697887352e-03      -1.058879375924e+01       1.189207991174e-07       5.375535912126e-04      -1.940661759570e-06 
   79       2.272314250413e+03       4.835293892181e-01       1.880032063351e-03      -1.117006510313e+01       1.181720213465e-07       5.299791407740e-04      -1.934700948345e-06 
   80       2.301547543961e+03       4.993119724061e-01       1.927972741972e-03      -1.176180255585e+01       1.174306338236e-07       5.226165337545e-04      -1.932010353251e-06 
   81       2.331043466516e+03       5.152338947459e-01       1.976521167386e-03      -1.236368801460e+01       1.166973483861e-07       5.154617831932e-04      -1.932540040755e-06 
   82       2.360801413789e+03       5.312817721353e-01       2.025678705962e-03      -1.297539099710e+01       1.159695207234e-07       5.084993386126e-04      -1.936175063738e-06 
   83       2.390818084791e+03       5.474416286405e-01       2.075446850319e-03      -1.359656875284e+01       1.152406555076e-07       5.017010340183e-04      -1.942729973159e-06 
   84       2.421089672243e+03       5.636993275192e-01       2.125827197517e-03      -1.422686090960e+01       1.145035246029e-07       4.950373055044e-04      -1.951953140152e-06 
   85       2.451619143156e+03       5.800419627011e-01       2.176821370633e-03      -1.486587214967e+01       1.137619450555e-07       4.885165139313e-04      -1.963553717014e-06 
   86       2.482409926300e+03       5.964566854052e-01       2.228431091541e-03      -1.551318685230e+01       1.130218898116e-07       4.821533691146e-04      -1.977171033453e-06 
   87       2.513463602812e+03       6.129302861045e-01       2.280658209160e-03      -1.616837432213e+01       1.122879433956e-07       4.759569426836e-04      -1.992359732507e-06 
   88       2.544779811881e+03       6.294491944488e-01       2.333504703066e-03      -1.683098880858e+01       1.115630528326e-07       4.699301123120e-04      -2.008584037852e-06 
   89       2.576356156432e+03       6.459994791875e-01       2.386972687099e-03      -1.750056952526e+01       1.108482632597e-07       4.640689899625e-04      -2.025211878883e-06 
   90       2.608188108810e+03       6.625668480926e-01       2.441064412976e-03      -1.817664066927e+01       1.101424378667e-07       4.583623341474e-04      -2.041508873579e-06 
   91       2.640268916464e+03       6.791366478817e-01       2.495782273902e-03      -1.885871144069e+01       1.094419618073e-07       4.527909462033e-04      -2.056632169142e-06 
   92       2.672589507634e+03       6.956938641405e-01       2.551128808176e-03      -1.954627606188e+01       1.087404297217e-07       4.473270505811e-04      -2.069624140425e-06 
   93       2.705141174548e+03       7.122233782750e-01       2.607106792529e-03      -2.023882332735e+01       1.080312824223e-07       4.419437595952e-04      -2.079629074830e-06 
   94       2.737924289508e+03       7.287107827421e-01       2.663719530343e-03      -2.093586685417e+01       1.073173897938e-07       4.366473436059e-04      -2.086613862485e-06 
   95       2.770940731425e+03       7.451416888573e-01       2.720970613657e-03      -2.163691943819e+01       1.066037066902e-07       4.314510371279e-04      -2.090797368660e-06 
   96       2.804191169671e+03       7.615014840959e-01       2.778863842079e-03      -2.234148407725e+01       1.058944260063e-07       4.263653139898e-04      -2.092443834560e-06 
   97       2.837675007886e+03       7.777753355435e-01       2.837403227631e-03      -2.304905412127e+01       1.051928444603e-07       4.213976214409e-04      -2.091865446426e-06 
   98       2.871390327795e+03       7.939481933477e-01       2.896592999588e-03      -2.375911342254e+01       1.045012207604e-07       4.165521071704e-04      -2.089424958969e-06 
   99       2.905333833014e+03       8.100047941687e-01       2.956437609323e-03      -2.447113648591e+01       1.038206259927e-07       4.118293392375e-04      -2.085538373130e-06 
  100       2.939500792862e+03       8.259296646304e-01       3.016941735144e-03      -2.518458861898e+01       1.031507860683e-07       4.072260189158e-04      -2.080677668165e-06 
  101       2.973884986173e+03       8.417071247718e-01       3.078110287140e-03      -2.589892608227e+01       1.024899160650e-07       4.027346864482e-04      -2.075373588069e-06 
  102       3.008478645105e+03       8.573212914978e-01       3.139948412023e-03      -2.661359623953e+01       1.018345463015e-07       3.983434197148e-04      -2.070218482316e-06 
  103       3.043272398953e+03       8.727560820303e-01       3.202461497964e-03      -2.732803770782e+01       1.011793399799e-07       3.940355258129e-04      -2.065869200942e-06 
  104       3.078257193335e+03       8.879956035134e-01       3.265654998038e-03      -2.804168449091e+01       1.005190690468e-07       3.897951163717e-04      -2.062909104765e-06 
  105       3.113430464041e+03       9.030253743331e-01       3.329533862935e-03      -2.875397869159e+01       9.985558804226e-08       3.856258233616e-04      -2.061395571288e-06 
  106       3.148790696310e+03       9.178312749822e-01       3.394103040283e-03      -2.946435980459e+01       9.919236852611e-08       3.815352755573e-04      -2.061226568892e-06 
  107       3.184335489864e+03       9.323991842401e-01       3.459367652024e-03      -3.017226107848e+01       9.853242412943e-08       3.775294006707e-04      -2.062272034585e-06 
