# Matter power spectrum P(k) at redshift z=0
# for k=1.00899e-05 to 285.831 h/Mpc,
# number of wavenumbers equal to 587
#    1:k (h/Mpc)              2:P (Mpc/h)^3        
       1.008985870589e-05       5.704087078070e+01 
       1.038448789942e-05       5.863893739065e+01 
       1.068772042073e-05       6.028177550618e+01 
       1.099980749152e-05       6.197063119207e+01 
       1.132100766931e-05       6.370681226902e+01 
       1.165158706163e-05       6.549162610107e+01 
       1.199181954648e-05       6.732643988310e+01 
       1.234198699926e-05       6.921266340847e+01 
       1.270237952626e-05       7.115172133789e+01 
       1.307329570505e-05       7.314509938662e+01 
       1.345504283181e-05       7.519430540935e+01 
       1.384793717592e-05       7.730100491957e+01 
       1.425230424201e-05       7.946665577794e+01 
       1.466847903962e-05       8.169300605987e+01 
       1.509680636071e-05       8.398171104393e+01 
       1.553764106540e-05       8.633451827894e+01 
       1.599134837587e-05       8.875325753200e+01 
       1.645830417899e-05       9.123977736055e+01 
       1.693889533774e-05       9.379593578572e+01 
       1.743352001170e-05       9.642369836222e+01 
       1.794258798689e-05       9.912509161708e+01 
       1.846652101534e-05       1.019021626570e+02 
       1.900575316444e-05       1.047570190252e+02 
       1.956073117657e-05       1.076918605379e+02 
       2.013191483923e-05       1.107089109461e+02 
       2.071977736597e-05       1.138105000898e+02 
       2.132480578841e-05       1.169989635889e+02 
       2.194750135975e-05       1.202767410630e+02 
       2.258837997005e-05       1.236463650799e+02 
       2.324797257365e-05       1.271103682053e+02 
       2.392682562900e-05       1.306714138716e+02 
       2.462550155146e-05       1.343322197332e+02 
       2.534457917919e-05       1.380955742139e+02 
       2.608465425274e-05       1.419643483008e+02 
       2.684633990860e-05       1.459415061088e+02 
       2.763026718718e-05       1.500300701209e+02 
       2.843708555556e-05       1.542331649240e+02 
       2.926746344566e-05       1.585539984782e+02 
       3.012208880792e-05       1.629958663192e+02 
       3.100166968130e-05       1.675621607833e+02 
       3.190693477991e-05       1.722563641256e+02 
       3.283863409664e-05       1.770820493828e+02 
       3.379753952460e-05       1.820429161530e+02 
       3.478444549660e-05       1.871427316196e+02 
       3.580016964326e-05       1.923853982762e+02 
       3.684555347050e-05       1.977749104005e+02 
       3.792146305661e-05       2.033153803369e+02 
       3.902878976984e-05       2.090110359277e+02 
       4.016845100688e-05       2.148662145696e+02 
       4.134139095287e-05       2.208853925771e+02 
       4.254858136364e-05       2.270731495480e+02 
       4.379102237084e-05       2.334342095576e+02 
       4.506974331045e-05       2.399734203214e+02 
       4.638580357563e-05       2.466957710306e+02 
       4.774029349437e-05       2.536063862416e+02 
       4.913433523283e-05       2.607105295459e+02 
       5.056908372497e-05       2.680136149855e+02 
       5.204572762948e-05       2.755212117283e+02 
       5.356549031448e-05       2.832390508667e+02 
       5.512963087109e-05       2.911729989811e+02 
       5.673944515656e-05       2.993291023158e+02 
       5.839626686785e-05       3.077135867065e+02 
       6.010146864658e-05       3.163328204014e+02 
       6.185646321622e-05       3.251933840880e+02 
       6.366270455252e-05       3.343020184802e+02 
       6.552168908807e-05       3.436656536097e+02 
       6.743495695211e-05       3.532914248641e+02 
       6.940409324645e-05       3.631866554788e+02 
       7.143072935870e-05       3.733588809241e+02 
       7.351654431385e-05       3.838158190421e+02 
       7.566326616533e-05       3.945654496563e+02 
       7.787267342661e-05       4.056159360339e+02 
       8.014659654471e-05       4.169756813208e+02 
       8.248691941665e-05       4.286533153953e+02 
       8.489558095026e-05       4.406577228580e+02 
       8.737457667049e-05       4.529980211175e+02 
       8.992596037266e-05       4.656835734430e+02 
       9.255184582400e-05       4.787240172215e+02 
       9.525440851488e-05       4.921292496762e+02 
       9.803588746111e-05       5.059094406838e+02 
       1.008985870589e-04       5.200750413707e+02 
       1.038448789942e-04       5.346367942769e+02 
       1.068772042073e-04       5.496057282546e+02 
       1.099980749152e-04       5.649931867258e+02 
       1.132100766931e-04       5.808108244617e+02 
       1.165158706163e-04       5.970706008951e+02 
       1.199181954648e-04       6.137848297850e+02 
       1.234198699926e-04       6.309661342789e+02 
       1.270237952626e-04       6.486275004783e+02 
       1.307329570505e-04       6.667822614319e+02 
       1.345504283181e-04       6.854441187350e+02 
       1.384793717592e-04       7.046271433770e+02 
       1.425230424201e-04       7.243457830773e+02 
       1.466847903962e-04       7.446149123286e+02 
       1.509680636071e-04       7.654497412152e+02 
       1.553764106540e-04       7.868659675747e+02 
       1.599134837587e-04       8.088796550361e+02 
       1.645830417899e-04       8.315073244156e+02 
       1.693889533774e-04       8.547659268675e+02 
       1.743352001170e-04       8.786729010581e+02 
       1.794258798689e-04       9.032461237579e+02 
       1.846652101534e-04       9.285039356673e+02 
       1.900575316444e-04       9.544651823863e+02 
       1.956073117657e-04       9.811492409419e+02 
       2.013191483923e-04       1.008575937893e+03 
       2.071977736597e-04       1.036765659468e+03 
       2.132480578841e-04       1.065739320223e+03 
       2.194750135975e-04       1.095518388315e+03 
       2.258837997005e-04       1.126124877295e+03 
       2.324797257365e-04       1.157581421302e+03 
       2.392682562900e-04       1.189911092843e+03 
       2.462550155146e-04       1.223137740877e+03 
       2.534457917919e-04       1.257285740955e+03 
       2.608465425274e-04       1.292380103900e+03 
       2.684633990860e-04       1.328446435210e+03 
       2.763026718718e-04       1.365511029347e+03 
       2.843708555556e-04       1.403600857424e+03 
       2.926746344566e-04       1.442743478924e+03 
       3.012208880792e-04       1.482967245975e+03 
       3.100166968130e-04       1.524301116026e+03 
       3.190693477991e-04       1.566774794436e+03 
       3.283863409664e-04       1.610418740586e+03 
       3.379753952460e-04       1.655264085109e+03 
       3.478444549660e-04       1.701342737974e+03 
       3.580016964326e-04       1.748687344854e+03 
       3.684555347050e-04       1.797331373414e+03 
       3.792146305661e-04       1.847309064489e+03 
       3.902878976984e-04       1.898655261179e+03 
       4.016845100688e-04       1.951405941511e+03 
       4.134139095287e-04       2.005597671856e+03 
       4.254858136364e-04       2.061267884511e+03 
       4.379102237084e-04       2.118454932478e+03 
       4.506974331045e-04       2.177197719299e+03 
       4.638580357563e-04       2.237536447156e+03 
       4.774029349438e-04       2.299511840278e+03 
       4.913433523283e-04       2.363165633323e+03 
       5.056908372497e-04       2.428540375046e+03 
       5.204572762948e-04       2.495679540368e+03 
       5.356549031448e-04       2.564627447017e+03 
       5.512963087109e-04       2.635429343155e+03 
       5.673944515656e-04       2.708131400898e+03 
       5.839626686785e-04       2.782780606617e+03 
       6.010146864658e-04       2.859424908261e+03 
       6.185646321622e-04       2.938113134752e+03 
       6.366270455252e-04       3.018895098003e+03 
       6.552168908807e-04       3.101821363496e+03 
       6.743495695211e-04       3.186943595243e+03 
       6.940409324645e-04       3.274313955747e+03 
       7.143072935870e-04       3.363985995830e+03 
       7.351654431385e-04       3.456013841311e+03 
       7.566326616533e-04       3.550452617568e+03 
       7.787267342661e-04       3.647357897496e+03 
       8.014659654471e-04       3.746786643386e+03 
       8.248691941665e-04       3.848796290894e+03 
       8.489558095026e-04       3.953445062265e+03 
       8.737457667049e-04       4.060791871030e+03 
       8.992596037266e-04       4.170896513311e+03 
       9.255184582400e-04       4.283819173071e+03 
       9.525440851488e-04       4.399620779968e+03 
       9.803588746111e-04       4.518362948059e+03 
       1.008985870589e-03       4.640107446792e+03 
       1.038448789942e-03       4.764916706150e+03 
       1.068772042073e-03       4.892853476368e+03 
       1.099980749152e-03       5.023980790430e+03 
       1.132100766931e-03       5.158361896918e+03 
       1.165158706163e-03       5.296060003983e+03 
       1.199181954648e-03       5.437138742543e+03 
       1.234198699926e-03       5.581661419884e+03 
       1.270237952626e-03       5.729697841312e+03 
       1.307329570505e-03       5.881326787374e+03 
       1.345504283181e-03       6.036592250278e+03 
       1.384793717592e-03       6.195556675600e+03 
       1.425230424202e-03       6.358281927371e+03 
       1.466847903962e-03       6.524829208233e+03 
       1.509680636071e-03       6.695258344106e+03 
       1.553764106540e-03       6.869629166926e+03 
       1.599134837587e-03       7.047999434916e+03 
       1.645830417899e-03       7.230426096084e+03 
       1.693889533774e-03       7.416964468044e+03 
       1.743352001170e-03       7.607667531063e+03 
       1.794258798689e-03       7.802587587742e+03 
       1.846652101534e-03       8.001773205430e+03 
       1.900575316444e-03       8.205272103047e+03 
       1.956073117657e-03       8.413128279068e+03 
       2.013191483923e-03       8.625383721685e+03 
       2.071977736597e-03       8.842076828598e+03 
       2.132480578841e-03       9.063243001497e+03 
       2.194750135975e-03       9.288914358950e+03 
       2.258837997005e-03       9.519118051497e+03 
       2.324797257365e-03       9.753879071799e+03 
       2.392682562900e-03       9.993215642504e+03 
       2.462550155146e-03       1.023714310177e+04 
       2.534457917919e-03       1.048567100945e+04 
       2.608465425274e-03       1.073880259057e+04 
       2.684633990860e-03       1.099653712849e+04 
       2.763026718718e-03       1.125886591800e+04 
       2.843708555556e-03       1.152577524020e+04 
       2.926746344566e-03       1.179724351156e+04 
       3.012208880792e-03       1.207324110811e+04 
       3.100166968130e-03       1.235373280946e+04 
       3.190693477991e-03       1.263867203438e+04 
       3.283863409664e-03       1.292800735986e+04 
       3.379753952460e-03       1.322167406891e+04 
       3.478444549660e-03       1.351960030578e+04 
       3.580016964326e-03       1.382170385113e+04 
       3.684555347050e-03       1.412789048247e+04 
       3.792146305661e-03       1.443805884680e+04 
       3.902878976984e-03       1.475209066966e+04 
       4.016845100688e-03       1.506985728843e+04 
       4.134139095287e-03       1.539122670828e+04 
       4.254858136364e-03       1.571603731159e+04 
       4.379102237084e-03       1.604412937351e+04 
       4.506974331045e-03       1.637531940051e+04 
       4.638580357563e-03       1.670935921238e+04 
       4.774029349438e-03       1.704614108512e+04 
       4.913433523283e-03       1.738535844744e+04 
       5.056908372497e-03       1.772689293090e+04 
       5.204572762948e-03       1.807037807294e+04 
       5.356549031448e-03       1.841555543902e+04 
       5.512963087109e-03       1.876211455993e+04 
       5.673944515656e-03       1.910974601706e+04 
       5.839626686785e-03       1.945812239576e+04 
       6.010146864658e-03       1.980689814334e+04 
       6.185646321622e-03       2.015569369513e+04 
       6.366270455252e-03       2.050412338010e+04 
       6.552168908807e-03       2.085177935695e+04 
       6.743495695211e-03       2.119822955571e+04 
       6.940409324645e-03       2.154296960021e+04 
       7.143072935870e-03       2.188560259668e+04 
       7.351654431385e-03       2.222555511324e+04 
       7.566326616533e-03       2.256234302756e+04 
       7.787267342661e-03       2.289540680247e+04 
       8.014659654471e-03       2.322414046494e+04 
       8.248691941665e-03       2.354795214586e+04 
       8.489558095026e-03       2.386626898363e+04 
       8.737457667049e-03       2.417828848239e+04 
       8.992596037266e-03       2.448357543284e+04 
       9.255184582400e-03       2.478119058767e+04 
       9.525440851488e-03       2.507057977017e+04 
       9.803588746111e-03       2.535093725791e+04 
       1.008985870589e-02       2.562148290523e+04 
       1.038448789942e-02       2.588143742964e+04 
       1.068772042073e-02       2.612996028939e+04 
       1.099980749152e-02       2.636623957916e+04 
       1.132100766931e-02       2.658940360871e+04 
       1.165158706163e-02       2.679865132175e+04 
       1.199181954648e-02       2.699296308383e+04 
       1.234198699926e-02       2.717139464229e+04 
       1.270237952626e-02       2.733326840711e+04 
       1.307329570505e-02       2.747751132807e+04 
       1.345504283181e-02       2.760329412083e+04 
       1.384793717592e-02       2.770957720765e+04 
       1.425230424202e-02       2.779545734939e+04 
       1.466847903963e-02       2.786020589301e+04 
       1.509680636074e-02       2.790282662920e+04 
       1.553764106548e-02       2.792235832928e+04 
       1.599134837608e-02       2.791813301690e+04 
       1.645830417957e-02       2.788940411792e+04 
       1.693889533924e-02       2.783535969283e+04 
       1.743352001546e-02       2.775540134361e+04 
       1.794258799607e-02       2.764885600486e+04 
       1.846652103709e-02       2.751531434253e+04 
       1.900575321452e-02       2.735440007173e+04 
       1.956073128870e-02       2.716573115353e+04 
       2.013191508353e-02       2.694918455044e+04 
       2.071977788416e-02       2.670477432152e+04 
       2.132480685939e-02       2.643253059448e+04 
       2.194750351787e-02       2.613279410292e+04 
       2.258838421306e-02       2.580598373894e+04 
       2.324798071816e-02       2.545289175317e+04 
       2.392684090240e-02       2.507417335365e+04 
       2.462552955212e-02       2.467096763773e+04 
       2.534462939499e-02       2.424460178559e+04 
       2.608474240342e-02       2.379638094730e+04 
       2.684649147135e-02       2.332823507304e+04 
       2.763052257754e-02       2.284191715211e+04 
       2.843750756313e-02       2.233954605379e+04 
       2.926814766066e-02       2.182372346543e+04 
       3.012317791048e-02       2.129639366195e+04 
       3.100337258439e-02       2.076079107126e+04 
       3.190955170259e-02       2.021956370845e+04 
       3.284258867309e-02       1.967545981147e+04 
       3.380341900404e-02       1.913153285880e+04 
       3.479304993695e-02       1.859084523219e+04 
       3.581257073019e-02       1.805627653921e+04 
       3.686316319320e-02       1.753076118864e+04 
       3.794611194825e-02       1.701716972136e+04 
       3.906281379287e-02       1.651818720565e+04 
       4.021478547217e-02       1.603615448397e+04 
       4.140366916454e-02       1.557344479627e+04 
       4.263123505067e-02       1.513183963482e+04 
       4.389938048166e-02       1.471274680487e+04 
       4.521012548301e-02       1.431743333452e+04 
       4.656560461099e-02       1.394640607519e+04 
       4.796805548637e-02       1.359963278188e+04 
       4.941980463150e-02       1.327626294528e+04 
       5.092325148804e-02       1.297507988780e+04 
       5.248085165900e-02       1.269364574757e+04 
       5.409510047684e-02       1.242892554738e+04 
       5.576851794029e-02       1.217686302722e+04 
       5.750363590034e-02       1.193245841724e+04 
       5.930298813551e-02       1.168983360738e+04 
       6.116910367850e-02       1.144305649612e+04 
       6.310450347687e-02       1.118503209190e+04 
       6.511170022679e-02       1.090906841794e+04 
       6.719320103232e-02       1.060892820164e+04 
       6.935151242450e-02       1.028060583714e+04 
       7.158914722410e-02       9.920024299290e+03 
       7.390863273767e-02       9.526669968409e+03 
       7.631251982442e-02       9.102515327611e+03 
       7.880339244491e-02       8.653314480206e+03 
       8.138387738640e-02       8.186420882038e+03 
       8.405665394311e-02       7.713596386804e+03 
       8.682446340420e-02       7.246609950471e+03 
       8.969011826444e-02       6.798778122080e+03 
       9.265651112018e-02       6.382264637603e+03 
       9.572662324704e-02       6.007537706211e+03 
       9.890353287826e-02       5.681571256801e+03 
       1.021904232141e-01       5.407276383621e+03 
       1.055905901978e-01       5.182687635644e+03 
       1.091074500934e-01       5.001166924790e+03 
       1.127445468941e-01       4.851268634676e+03 
       1.165055595874e-01       4.717728700057e+03 
       1.203943092911e-01       4.583871640039e+03 
       1.244147662697e-01       4.433101461989e+03 
       1.285710568303e-01       4.253245112209e+03 
       1.328674700911e-01       4.039585426841e+03 
       1.373084646056e-01       3.795462023265e+03 
       1.418986748210e-01       3.533086053770e+03 
       1.466429173391e-01       3.270582978190e+03 
       1.515461969428e-01       3.026601599694e+03 
       1.566137123413e-01       2.816793897091e+03 
       1.618508615817e-01       2.649046473124e+03 
       1.672632470626e-01       2.522074592853e+03 
       1.728566800795e-01       2.425319888981e+03 
       1.786371848180e-01       2.342536438727e+03 
       1.846110017042e-01       2.254971024243e+03 
       1.907845900045e-01       2.147449355382e+03 
       1.971646295613e-01       2.016381100433e+03 
       2.037580215324e-01       1.871004775959e+03 
       2.105718879931e-01       1.727438233592e+03 
       2.176135702436e-01       1.600724142216e+03 
       2.248906256537e-01       1.499611189238e+03 
       2.324108228622e-01       1.422958062650e+03 
       2.401821351383e-01       1.360018545892e+03 
       2.482127317005e-01       1.296265716076e+03 
       2.565109667824e-01       1.222248981143e+03 
       2.650853662287e-01       1.138221014902e+03 
       2.739446114046e-01       1.053503717841e+03 
       2.830975202080e-01       9.793810541262e+02 
       2.925530249865e-01       9.199557257990e+02 
       3.023201471855e-01       8.706151502853e+02 
       3.124079685928e-01       8.228752019284e+02 
       3.228255990988e-01       7.709645148501e+02 
       3.335821409741e-01       7.169541042424e+02 
       3.446866497744e-01       6.667791238525e+02 
       3.561480921288e-01       6.241446566923e+02 
       3.679753008612e-01       5.869796709840e+02 
       3.801769281432e-01       5.508279910778e+02 
       3.927613976821e-01       5.140478119816e+02 
       4.057368573325e-01       4.787986349353e+02 
       4.191111339651e-01       4.471701631122e+02 
       4.328916929461e-01       4.188637259461e+02 
       4.470856051459e-01       3.919329381255e+02 
       4.616995249803e-01       3.656740025082e+02 
       4.767396835364e-01       3.410891476954e+02 
       4.922119012726e-01       3.188271204053e+02 
       5.081216249989e-01       2.981087877420e+02 
       5.244739937188e-01       2.783098426458e+02 
       5.412739373025e-01       2.598061089662e+02 
       5.585263107358e-01       2.427671118895e+02 
       5.762360647597e-01       2.268624589004e+02 
       5.944084510740e-01       2.118915654163e+02 
       6.130492570340e-01       1.979632821708e+02 
       6.321650611971e-01       1.850353460327e+02 
       6.517634975818e-01       1.729377559056e+02 
       6.718535136352e-01       1.616372312506e+02 
       6.924456052337e-01       1.511219492978e+02 
       7.135520120448e-01       1.413117335810e+02 
       7.351868585410e-01       1.321448940586e+02 
       7.573662298202e-01       1.235923410428e+02 
