# Matter power spectrum P(k) at redshift z=0
# for k=1.00899e-05 to 285.831 h/Mpc,
# number of wavenumbers equal to 587
#    1:k (h/Mpc)              2:P (Mpc/h)^3        
       1.008985870589e-05       5.704011525511e+01 
       1.038448789942e-05       5.863816069814e+01 
       1.068772042073e-05       6.028097705371e+01 
       1.099980749152e-05       6.196981037015e+01 
       1.132100766931e-05       6.370596845079e+01 
       1.165158706163e-05       6.549075864237e+01 
       1.199181954648e-05       6.732554812168e+01 
       1.234198699926e-05       6.921174666338e+01 
       1.270237952626e-05       7.115077890933e+01 
       1.307329570505e-05       7.314413055509e+01 
       1.345504283181e-05       7.519330943539e+01 
       1.384793717592e-05       7.729998104168e+01 
       1.425230424201e-05       7.946560321526e+01 
       1.466847903962e-05       8.169192400843e+01 
       1.509680636071e-05       8.398059867782e+01 
       1.553764106540e-05       8.633337474910e+01 
       1.599134837587e-05       8.875208196515e+01 
       1.645830417899e-05       9.123856885891e+01 
       1.693889533774e-05       9.379469342689e+01 
       1.743352001170e-05       9.642242119779e+01 
       1.794258798689e-05       9.912377867178e+01 
       1.846652101534e-05       1.019008129284e+02 
       1.900575316444e-05       1.047556314831e+02 
       1.956073117657e-05       1.076904341229e+02 
       2.013191483923e-05       1.107074445692e+02 
       2.071977736597e-05       1.138089926313e+02 
       2.132480578841e-05       1.169974138982e+02 
       2.194750135975e-05       1.202751479569e+02 
       2.258837997005e-05       1.236447273421e+02 
       2.324797257365e-05       1.271086845856e+02 
       2.392682562900e-05       1.306696830846e+02 
       2.462550155146e-05       1.343304404576e+02 
       2.534457917919e-05       1.380937450914e+02 
       2.608465425274e-05       1.419624679351e+02 
       2.684633990860e-05       1.459395730643e+02 
       2.763026718718e-05       1.500280829220e+02 
       2.843708555556e-05       1.542311220536e+02 
       2.926746344566e-05       1.585518983770e+02 
       3.012208880792e-05       1.629937073840e+02 
       3.100166968130e-05       1.675599413660e+02 
       3.190693477991e-05       1.722540825319e+02 
       3.283863409664e-05       1.770797038713e+02 
       3.379753952460e-05       1.820405049331e+02 
       3.478444549660e-05       1.871402528510e+02 
       3.580016964326e-05       1.923828500667e+02 
       3.684555347050e-05       1.977722908050e+02 
       3.792146305661e-05       2.033126873560e+02 
       3.902878976984e-05       2.090082675059e+02 
       4.016845100688e-05       2.148633685941e+02 
       4.134139095287e-05       2.208824668755e+02 
       4.254858136364e-05       2.270701418875e+02 
       4.379102237084e-05       2.334311176427e+02 
       4.506974331045e-05       2.399702417925e+02 
       4.638580357563e-05       2.466925034619e+02 
       4.774029349437e-05       2.536030271391e+02 
       4.913433523283e-05       2.607070763468e+02 
       5.056908372497e-05       2.680100650548e+02 
       5.204572762948e-05       2.755175623568e+02 
       5.356549031448e-05       2.832352992699e+02 
       5.512963087109e-05       2.911691422964e+02 
       5.673944515656e-05       2.993251376007e+02 
       5.839626686785e-05       3.077095109362e+02 
       6.010146864658e-05       3.163286304663e+02 
       6.185646321622e-05       3.251890767918e+02 
       6.366270455252e-05       3.342975905371e+02 
       6.552168908807e-05       3.436611016421e+02 
       6.743495695211e-05       3.532867453999e+02 
       6.940409324645e-05       3.631818449492e+02 
       7.143072935870e-05       3.733539356567e+02 
       7.351654431385e-05       3.838107352721e+02 
       7.566326616533e-05       3.945602235036e+02 
       7.787267342661e-05       4.056105635197e+02 
       8.014659654471e-05       4.169701583372e+02 
       8.248691941665e-05       4.286476377375e+02 
       8.489558095026e-05       4.406518861976e+02 
       8.737457667049e-05       4.529920210058e+02 
       8.992596037266e-05       4.656774053069e+02 
       9.255184582400e-05       4.787176763604e+02 
       9.525440851488e-05       4.921227312581e+02 
       9.803588746111e-05       5.059027397424e+02 
       1.008985870589e-04       5.200681528012e+02 
       1.038448789942e-04       5.346297128321e+02 
       1.068772042073e-04       5.495984485412e+02 
       1.099980749152e-04       5.649857032125e+02 
       1.132100766931e-04       5.808031314263e+02 
       1.165158706163e-04       5.970626924929e+02 
       1.199181954648e-04       6.137766999978e+02 
       1.234198699926e-04       6.309577769195e+02 
       1.270237952626e-04       6.486189091883e+02 
       1.307329570505e-04       6.667734296748e+02 
       1.345504283181e-04       6.854350397963e+02 
       1.384793717592e-04       7.046178103527e+02 
       1.425230424201e-04       7.243361888730e+02 
       1.466847903962e-04       7.446050496528e+02 
       1.509680636071e-04       7.654396025751e+02 
       1.553764106540e-04       7.868555452695e+02 
       1.599134837587e-04       8.088689411521e+02 
       1.645830417899e-04       8.314963108205e+02 
       1.693889533774e-04       8.547546052043e+02 
       1.743352001170e-04       8.786612627391e+02 
       1.794258798689e-04       9.032341599583e+02 
       1.846652101534e-04       9.284916373194e+02 
       1.900575316444e-04       9.544525401729e+02 
       1.956073117657e-04       9.811362452895e+02 
       2.013191483923e-04       1.008562578964e+03 
       2.071977736597e-04       1.036751927158e+03 
       2.132480578841e-04       1.065725204146e+03 
       2.194750135975e-04       1.095503877804e+03 
       2.258837997005e-04       1.126109961391e+03 
       2.324797257365e-04       1.157566088745e+03 
       2.392682562900e-04       1.189895332069e+03 
       2.462550155146e-04       1.223121540006e+03 
       2.534457917919e-04       1.257269087782e+03 
       2.608465425274e-04       1.292362985890e+03 
       2.684633990860e-04       1.328428839489e+03 
       2.763026718718e-04       1.365492942693e+03 
       2.843708555556e-04       1.403582266258e+03 
       2.926746344566e-04       1.442724369301e+03 
       3.012208880792e-04       1.482947603574e+03 
       3.100166968130e-04       1.524280926144e+03 
       3.190693477991e-04       1.566754041975e+03 
       3.283863409664e-04       1.610397410047e+03 
       3.379753952460e-04       1.655242160579e+03 
       3.478444549660e-04       1.701320203115e+03 
       3.580016964326e-04       1.748664182901e+03 
       3.684555347050e-04       1.797307567154e+03 
       3.792146305661e-04       1.847284596258e+03 
       3.902878976984e-04       1.898630112850e+03 
       4.016845100688e-04       1.951380094482e+03 
       4.134139095287e-04       2.005571107039e+03 
       4.254858136364e-04       2.061240582323e+03 
       4.379102237084e-04       2.118426872829e+03 
       4.506974331045e-04       2.177168881582e+03 
       4.638580357563e-04       2.237506810232e+03 
       4.774029349438e-04       2.299481382469e+03 
       4.913433523283e-04       2.363134332398e+03 
       5.056908372497e-04       2.428508208211e+03 
       5.204572762948e-04       2.495646484253e+03 
       5.356549031448e-04       2.564593477663e+03 
       5.512963087109e-04       2.635394436004e+03 
       5.673944515656e-04       2.708095530787e+03 
       5.839626686785e-04       2.782743747752e+03 
       6.010146864658e-04       2.859387034217e+03 
       6.185646321622e-04       2.938074218456e+03 
       6.366270455252e-04       3.018855111723e+03 
       6.552168908807e-04       3.101780278830e+03 
       6.743495695211e-04       3.186901383105e+03 
       6.940409324645e-04       3.274270586359e+03 
       7.143072935870e-04       3.363941438706e+03 
       7.351654431385e-04       3.455968065248e+03 
       7.566326616533e-04       3.550405590632e+03 
       7.787267342661e-04       3.647309587018e+03 
       8.014659654471e-04       3.746737015941e+03 
       8.248691941665e-04       3.848745312299e+03 
       8.489558095026e-04       3.953392697562e+03 
       8.737457667049e-04       4.060738084494e+03 
       8.992596037266e-04       4.170841268392e+03 
       9.255184582400e-04       4.283762432454e+03 
       9.525440851488e-04       4.399562505521e+03 
       9.803588746111e-04       4.518303100834e+03 
       1.008985870589e-03       4.640045987021e+03 
       1.038448789942e-03       4.764853593240e+03 
       1.068772042073e-03       4.892788668894e+03 
       1.099980749152e-03       5.023914246132e+03 
       1.132100766931e-03       5.158293572699e+03 
       1.165158706163e-03       5.295989855909e+03 
       1.199181954648e-03       5.437066725835e+03 
       1.234198699926e-03       5.581587488928e+03 
       1.270237952626e-03       5.729621949566e+03 
       1.307329570505e-03       5.881248887256e+03 
       1.345504283181e-03       6.036512293618e+03 
       1.384793717592e-03       6.195474613409e+03 
       1.425230424202e-03       6.358197709835e+03 
       1.466847903962e-03       6.524742784727e+03 
       1.509680636071e-03       6.695169663211e+03 
       1.553764106540e-03       6.869538176440e+03 
       1.599134837587e-03       7.047906081863e+03 
       1.645830417899e-03       7.230330326737e+03 
       1.693889533774e-03       7.416866227941e+03 
       1.743352001170e-03       7.607566765044e+03 
       1.794258798689e-03       7.802484239951e+03 
       1.846652101534e-03       8.001667219368e+03 
       1.900575316444e-03       8.205163421587e+03 
       1.956073117657e-03       8.413016844498e+03 
       2.013191483923e-03       8.625269475733e+03 
       2.071977736597e-03       8.841959712488e+03 
       2.132480578841e-03       9.063122955984e+03 
       2.194750135975e-03       9.288791324364e+03 
       2.258837997005e-03       9.518991967805e+03 
       2.324797257365e-03       9.753749878641e+03 
       2.392682562900e-03       9.993083279276e+03 
       2.462550155146e-03       1.023700750767e+04 
       2.534457917919e-03       1.048553212354e+04 
       2.608465425274e-03       1.073866035188e+04 
       2.684633990860e-03       1.099639147605e+04 
       2.763026718718e-03       1.125871679098e+04 
       2.843708555556e-03       1.152562257790e+04 
       2.926746344566e-03       1.179708725362e+04 
       3.012208880792e-03       1.207308119454e+04 
       3.100166968130e-03       1.235356918074e+04 
       3.190693477991e-03       1.263850463160e+04 
       3.283863409664e-03       1.292783612479e+04 
       3.379753952460e-03       1.322149894420e+04 
       3.478444549660e-03       1.351942123501e+04 
       3.580016964326e-03       1.382152077897e+04 
       3.684555347050e-03       1.412770335486e+04 
       3.792146305661e-03       1.443786761102e+04 
       3.902878976984e-03       1.475189527452e+04 
       4.016845100688e-03       1.506965768447e+04 
       4.134139095287e-03       1.539102284780e+04 
       4.254858136364e-03       1.571582914901e+04 
       4.379102237084e-03       1.604391686539e+04 
       4.506974331045e-03       1.637510250581e+04 
       4.638580357563e-03       1.670913805149e+04 
       4.774029349438e-03       1.704591535428e+04 
       4.913433523283e-03       1.738512812300e+04 
       5.056908372497e-03       1.772665865586e+04 
       5.204572762948e-03       1.807013920668e+04 
       5.356549031448e-03       1.841531177618e+04 
       5.512963087109e-03       1.876186614836e+04 
       5.673944515656e-03       1.910949276959e+04 
       5.839626686785e-03       1.945786453984e+04 
       6.010146864658e-03       1.980663544975e+04 
       6.185646321622e-03       2.015542630664e+04 
       6.366270455252e-03       2.050385152831e+04 
       6.552168908807e-03       2.085150297566e+04 
       6.743495695211e-03       2.119794835503e+04 
       6.940409324645e-03       2.154268419933e+04 
       7.143072935870e-03       2.188531156348e+04 
       7.351654431385e-03       2.222525915264e+04 
       7.566326616533e-03       2.256204212557e+04 
       7.787267342661e-03       2.289510359298e+04 
       8.014659654471e-03       2.322383271818e+04 
       8.248691941665e-03       2.354763917123e+04 
       8.489558095026e-03       2.386595261294e+04 
       8.737457667049e-03       2.417796706607e+04 
       8.992596037266e-03       2.448325104195e+04 
       9.255184582400e-03       2.478086047608e+04 
       9.525440851488e-03       2.507024962201e+04 
       9.803588746111e-03       2.535060141346e+04 
       1.008985870589e-02       2.562114339176e+04 
       1.038448789942e-02       2.588109742577e+04 
       1.068772042073e-02       2.612961735847e+04 
       1.099980749152e-02       2.636589037218e+04 
       1.132100766931e-02       2.658905301165e+04 
       1.165158706163e-02       2.679829651307e+04 
       1.199181954648e-02       2.699260552075e+04 
       1.234198699926e-02       2.717105354742e+04 
       1.270237952626e-02       2.733291552633e+04 
       1.307329570505e-02       2.747716043596e+04 
       1.345504283181e-02       2.760289046184e+04 
       1.384793717592e-02       2.770917488325e+04 
       1.425230424202e-02       2.779511986227e+04 
       1.466847903963e-02       2.785988842198e+04 
       1.509680636074e-02       2.790245685870e+04 
       1.553764106548e-02       2.792196705030e+04 
       1.599134837608e-02       2.791776621780e+04 
       1.645830417957e-02       2.788899702059e+04 
       1.693889533924e-02       2.783497516362e+04 
       1.743352001546e-02       2.775499637545e+04 
       1.794258799607e-02       2.764848616874e+04 
       1.846652103709e-02       2.751498103968e+04 
       1.900575321452e-02       2.735402855534e+04 
       1.956073128870e-02       2.716537382793e+04 
       2.013191508353e-02       2.694884402026e+04 
       2.071977788416e-02       2.670445655266e+04 
       2.132480685939e-02       2.643220315006e+04 
       2.194750351787e-02       2.613247063522e+04 
       2.258838421306e-02       2.580566802217e+04 
       2.324798071816e-02       2.545259002667e+04 
       2.392684090240e-02       2.507389667885e+04 
       2.462552955212e-02       2.467070009004e+04 
       2.534462939499e-02       2.424430294501e+04 
       2.608474240342e-02       2.379609702514e+04 
       2.684649147135e-02       2.332796605751e+04 
       2.763052257754e-02       2.284165932725e+04 
       2.843750756313e-02       2.233939223059e+04 
       2.926814766066e-02       2.182339328650e+04 
       3.012317791048e-02       2.129630064448e+04 
       3.100337258439e-02       2.076075152782e+04 
       3.190955170259e-02       2.021941731725e+04 
       3.284258867309e-02       1.967528478083e+04 
       3.380341900404e-02       1.913135714907e+04 
       3.479304993695e-02       1.859064804667e+04 
       3.581257073019e-02       1.805607962646e+04 
       3.686316319320e-02       1.753060491714e+04 
       3.794611194825e-02       1.701701342458e+04 
       3.906281379287e-02       1.651798308123e+04 
       4.021478547217e-02       1.603600448404e+04 
       4.140366916454e-02       1.557324894372e+04 
       4.263123505067e-02       1.513161047884e+04 
       4.389938048166e-02       1.471260231808e+04 
       4.521012548301e-02       1.431725511117e+04 
       4.656560461099e-02       1.394623421629e+04 
       4.796805548637e-02       1.359944336463e+04 
       4.941980463150e-02       1.327609043056e+04 
       5.092325148804e-02       1.297487365904e+04 
       5.248085165900e-02       1.269351571107e+04 
       5.409510047684e-02       1.242878874546e+04 
       5.576851794029e-02       1.217672033375e+04 
       5.750363590034e-02       1.193230720918e+04 
       5.930298813551e-02       1.168986889559e+04 
       6.116910367850e-02       1.144292168270e+04 
       6.310450347687e-02       1.118485375590e+04 
       6.511170022679e-02       1.090896398443e+04 
       6.719320103232e-02       1.060916038943e+04 
       6.935151242450e-02       1.028047469236e+04 
       7.158914722410e-02       9.919904213912e+03 
       7.390863273767e-02       9.526539393245e+03 
       7.631251982442e-02       9.102497106471e+03 
       7.880339244491e-02       8.653181062284e+03 
       8.138387738640e-02       8.186585269932e+03 
       8.405665394311e-02       7.713601154486e+03 
       8.682446340420e-02       7.246548198085e+03 
       8.969011826444e-02       6.798655381903e+03 
       9.265651112018e-02       6.382209426873e+03 
       9.572662324704e-02       6.007487345252e+03 
       9.890353287826e-02       5.681519976825e+03 
       1.021904232141e-01       5.407224606235e+03 
       1.055905901978e-01       5.182657473929e+03 
       1.091074500934e-01       5.001150698467e+03 
       1.127445468941e-01       4.851211252644e+03 
       1.165055595874e-01       4.717721706458e+03 
       1.203943092911e-01       4.583799385451e+03 
       1.244147662697e-01       4.433012295609e+03 
       1.285710568303e-01       4.253273392475e+03 
       1.328674700911e-01       4.039478766068e+03 
       1.373084646056e-01       3.795381968476e+03 
       1.418986748210e-01       3.533066742764e+03 
       1.466429173391e-01       3.270544758434e+03 
       1.515461969428e-01       3.026578939118e+03 
       1.566137123413e-01       2.816783817164e+03 
       1.618508615817e-01       2.649041718672e+03 
       1.672632470626e-01       2.522098267828e+03 
       1.728566800795e-01       2.425253030960e+03 
       1.786371848180e-01       2.342542756353e+03 
       1.846110017042e-01       2.254931513697e+03 
       1.907845900045e-01       2.147359775199e+03 
       1.971646295613e-01       2.016386026362e+03 
       2.037580215324e-01       1.871006675326e+03 
       2.105718879931e-01       1.727409843036e+03 
       2.176135702436e-01       1.600711127929e+03 
       2.248906256537e-01       1.499593490784e+03 
       2.324108228622e-01       1.422978300007e+03 
       2.401821351383e-01       1.360051708831e+03 
       2.482127317005e-01       1.296288579684e+03 
       2.565109667824e-01       1.222268033056e+03 
       2.650853662287e-01       1.138246305808e+03 
       2.739446114046e-01       1.053506467992e+03 
       2.830975202080e-01       9.793782389551e+02 
       2.925530249865e-01       9.199511141451e+02 
       3.023201471855e-01       8.706349856337e+02 
       3.124079685928e-01       8.228826896062e+02 
       3.228255990988e-01       7.709886666796e+02 
       3.335821409741e-01       7.169721659115e+02 
       3.446866497744e-01       6.667723008113e+02 
       3.561480921288e-01       6.241592393032e+02 
       3.679753008612e-01       5.869949519835e+02 
       3.801769281432e-01       5.508261723180e+02 
       3.927613976821e-01       5.140622497839e+02 
       4.057368573325e-01       4.787971038079e+02 
       4.191111339651e-01       4.471679625577e+02 
       4.328916929461e-01       4.188760273588e+02 
       4.470856051459e-01       3.919445842921e+02 
       4.616995249803e-01       3.656894831567e+02 
       4.767396835364e-01       3.410895592804e+02 
       4.922119012726e-01       3.188382031300e+02 
       5.081216249989e-01       2.981203978820e+02 
       5.244739937188e-01       2.783207408177e+02 
       5.412739373025e-01       2.598168190208e+02 
       5.585263107358e-01       2.427777026380e+02 
       5.762360647597e-01       2.268734297538e+02 
       5.944084510740e-01       2.119018392787e+02 
       6.130492570340e-01       1.979734609153e+02 
       6.321650611971e-01       1.850452260821e+02 
       6.517634975818e-01       1.729481230026e+02 
       6.718535136352e-01       1.616473042085e+02 
       6.924456052337e-01       1.511315930737e+02 
       7.135520120448e-01       1.413186937651e+02 
       7.351868585410e-01       1.321515629302e+02 
       7.573662298202e-01       1.235999914024e+02 
