# Matter power spectrum P(k) at redshift z=0
# for k=1.00899e-05 to 285.831 h/Mpc,
# number of wavenumbers equal to 587
#    1:k (h/Mpc)              2:P (Mpc/h)^3        
       1.008985870589e-05       5.703991965985e+01 
       1.038448789942e-05       5.863795962305e+01 
       1.068772042073e-05       6.028077034527e+01 
       1.099980749152e-05       6.196959787056e+01 
       1.132100766931e-05       6.370574999777e+01 
       1.165158706163e-05       6.549053406916e+01 
       1.199181954648e-05       6.732531725683e+01 
       1.234198699926e-05       6.921150933060e+01 
       1.270237952626e-05       7.115053492744e+01 
       1.307329570505e-05       7.314387973784e+01 
       1.345504283181e-05       7.519305159135e+01 
       1.384793717592e-05       7.729971597366e+01 
       1.425230424201e-05       7.946533072116e+01 
       1.466847903962e-05       8.169164388009e+01 
       1.509680636071e-05       8.398031070142e+01 
       1.553764106540e-05       8.633307870484e+01 
       1.599134837587e-05       8.875177762694e+01 
       1.645830417899e-05       9.123825599433e+01 
       1.693889533774e-05       9.379437179715e+01 
       1.743352001170e-05       9.642209055736e+01 
       1.794258798689e-05       9.912343876817e+01 
       1.846652101534e-05       1.019004635021e+02 
       1.900575316444e-05       1.047552722674e+02 
       1.956073117657e-05       1.076900648435e+02 
       2.013191483923e-05       1.107070649443e+02 
       2.071977736597e-05       1.138086023709e+02 
       2.132480578841e-05       1.169970127044e+02 
       2.194750135975e-05       1.202747355235e+02 
       2.258837997005e-05       1.236443033541e+02 
       2.324797257365e-05       1.271082487194e+02 
       2.392682562900e-05       1.306692350075e+02 
       2.462550155146e-05       1.343299798275e+02 
       2.534457917919e-05       1.380932715566e+02 
       2.608465425274e-05       1.419619811341e+02 
       2.684633990860e-05       1.459390726254e+02 
       2.763026718718e-05       1.500275684633e+02 
       2.843708555556e-05       1.542305931824e+02 
       2.926746344566e-05       1.585513546895e+02 
       3.012208880792e-05       1.629931484651e+02 
       3.100166968130e-05       1.675593667891e+02 
       3.190693477991e-05       1.722534918585e+02 
       3.283863409664e-05       1.770790966504e+02 
       3.379753952460e-05       1.820398807012e+02 
       3.478444549660e-05       1.871396111316e+02 
       3.580016964326e-05       1.923821903700e+02 
       3.684555347050e-05       1.977716126275e+02 
       3.792146305661e-05       2.033119901801e+02 
       3.902878976984e-05       2.090075507994e+02 
       4.016845100688e-05       2.148626318099e+02 
       4.134139095287e-05       2.208817094513e+02 
       4.254858136364e-05       2.270693632453e+02 
       4.379102237084e-05       2.334303171882e+02 
       4.506974331045e-05       2.399694189147e+02 
       4.638580357563e-05       2.466916575329e+02 
       4.774029349437e-05       2.536021575134e+02 
       4.913433523283e-05       2.607061823607e+02 
       5.056908372497e-05       2.680091460261e+02 
       5.204572762948e-05       2.755166175844e+02 
       5.356549031448e-05       2.832343280327e+02 
       5.512963087109e-05       2.911681438535e+02 
       5.673944515656e-05       2.993241111902e+02 
       5.839626686785e-05       3.077084557749e+02 
       6.010146864658e-05       3.163275457494e+02 
       6.185646321622e-05       3.251879616916e+02 
       6.366270455252e-05       3.342964442031e+02 
       6.552168908807e-05       3.436599231999e+02 
       6.743495695211e-05       3.532855339505e+02 
       6.940409324645e-05       3.631805995687e+02 
       7.143072935870e-05       3.733526553951e+02 
       7.351654431385e-05       3.838094191534e+02 
       7.566326616533e-05       3.945588705241e+02 
       7.787267342661e-05       4.056091726481e+02 
       8.014659654471e-05       4.169687285121e+02 
       8.248691941665e-05       4.286461678694e+02 
       8.489558095026e-05       4.406503751660e+02 
       8.737457667049e-05       4.529904676588e+02 
       8.992596037266e-05       4.656758084606e+02 
       9.255184582400e-05       4.787160347980e+02 
       9.525440851488e-05       4.921210437287e+02 
       9.803588746111e-05       5.059010049602e+02 
       1.008985870589e-04       5.200663694447e+02 
       1.038448789942e-04       5.346278795428e+02 
       1.068772042073e-04       5.495965639228e+02 
       1.099980749152e-04       5.649837658293e+02 
       1.132100766931e-04       5.808011398045e+02 
       1.165158706163e-04       5.970606451150e+02 
       1.199181954648e-04       6.137745953069e+02 
       1.234198699926e-04       6.309556133132e+02 
       1.270237952626e-04       6.486166850204e+02 
       1.307329570505e-04       6.667711432542e+02 
       1.345504283181e-04       6.854326893831e+02 
       1.384793717592e-04       7.046153941601e+02 
       1.425230424201e-04       7.243337050645e+02 
       1.466847903962e-04       7.446024963407e+02 
       1.509680636071e-04       7.654369778196e+02 
       1.553764106540e-04       7.868528470769e+02 
       1.599134837587e-04       8.088661674738e+02 
       1.645830417899e-04       8.314934595512e+02 
       1.693889533774e-04       8.547516741803e+02 
       1.743352001170e-04       8.786582497372e+02 
       1.794258798689e-04       9.032310626939e+02 
       1.846652101534e-04       9.284884534450e+02 
       1.900575316444e-04       9.544492672764e+02 
       1.956073117657e-04       9.811328808919e+02 
       2.013191483923e-04       1.008559120520e+03 
       2.071977736597e-04       1.036748372050e+03 
       2.132480578841e-04       1.065721549687e+03 
       2.194750135975e-04       1.095500121231e+03 
       2.258837997005e-04       1.126106099867e+03 
       2.324797257365e-04       1.157562119356e+03 
       2.392682562900e-04       1.189891251820e+03 
       2.462550155146e-04       1.223117345821e+03 
       2.534457917919e-04       1.257264776502e+03 
       2.608465425274e-04       1.292358554271e+03 
       2.684633990860e-04       1.328424284197e+03 
       2.763026718718e-04       1.365488260305e+03 
       2.843708555556e-04       1.403577453258e+03 
       2.926746344566e-04       1.442719422080e+03 
       3.012208880792e-04       1.482942518424e+03 
       3.100166968130e-04       1.524275699259e+03 
       3.190693477991e-04       1.566748669446e+03 
       3.283863409664e-04       1.610391887861e+03 
       3.379753952460e-04       1.655236484617e+03 
       3.478444549660e-04       1.701314369148e+03 
       3.580016964326e-04       1.748658186587e+03 
       3.684555347050e-04       1.797301404038e+03 
       3.792146305661e-04       1.847278261767e+03 
       3.902878976984e-04       1.898623602290e+03 
       4.016845100688e-04       1.951373403039e+03 
       4.134139095287e-04       2.005564229770e+03 
       4.254858136364e-04       2.061233514160e+03 
       4.379102237084e-04       2.118419608569e+03 
       4.506974331045e-04       2.177161415891e+03 
       4.638580357563e-04       2.237499137637e+03 
       4.774029349438e-04       2.299473497358e+03 
       4.913433523283e-04       2.363126229016e+03 
       5.056908372497e-04       2.428499880656e+03 
       5.204572762948e-04       2.495637926475e+03 
       5.356549031448e-04       2.564584683461e+03 
       5.512963087109e-04       2.635385399023e+03 
       5.673944515656e-04       2.708086244504e+03 
       5.839626686785e-04       2.782734205495e+03 
       6.010146864658e-04       2.859377229143e+03 
       6.185646321622e-04       2.938064143558e+03 
       6.366270455252e-04       3.018844759820e+03 
       6.552168908807e-04       3.101769642570e+03 
       6.743495695211e-04       3.186890454957e+03 
       6.940409324645e-04       3.274259358616e+03 
       7.143072935870e-04       3.363929903474e+03 
       7.351654431385e-04       3.455956214449e+03 
       7.566326616533e-04       3.550393415999e+03 
       7.787267342661e-04       3.647297080093e+03 
       8.014659654471e-04       3.746724168072e+03 
       8.248691941665e-04       3.848732114634e+03 
       8.489558095026e-04       3.953379141053e+03 
       8.737457667049e-04       4.060724159881e+03 
       8.992596037266e-04       4.170826966234e+03 
       9.255184582400e-04       4.283747743080e+03 
       9.525440851488e-04       4.399547419060e+03 
       9.803588746111e-04       4.518287607201e+03 
       1.008985870589e-03       4.640030075922e+03 
       1.038448789942e-03       4.764837254165e+03 
       1.068772042073e-03       4.892771891120e+03 
       1.099980749152e-03       5.023897018717e+03 
       1.132100766931e-03       5.158275884487e+03 
       1.165158706163e-03       5.295971695524e+03 
       1.199181954648e-03       5.437048081686e+03 
       1.234198699926e-03       5.581568349207e+03 
       1.270237952626e-03       5.729602302222e+03 
       1.307329570505e-03       5.881228719971e+03 
       1.345504283181e-03       6.036491593929e+03 
       1.384793717592e-03       6.195453368618e+03 
       1.425230424202e-03       6.358175907054e+03 
       1.466847903962e-03       6.524720410850e+03 
       1.509680636071e-03       6.695146704929e+03 
       1.553764106540e-03       6.869514620232e+03 
       1.599134837587e-03       7.047881914017e+03 
       1.645830417899e-03       7.230305533343e+03 
       1.693889533774e-03       7.416840794900e+03 
       1.743352001170e-03       7.607540678076e+03 
       1.794258798689e-03       7.802457484596e+03 
       1.846652101534e-03       8.001639780999e+03 
       1.900575316444e-03       8.205135285412e+03 
       1.956073117657e-03       8.412987995579e+03 
       2.013191483923e-03       8.625239898982e+03 
       2.071977736597e-03       8.841929392690e+03 
       2.132480578841e-03       9.063091877799e+03 
       2.194750135975e-03       9.288759472346e+03 
       2.258837997005e-03       9.518959326411e+03 
       2.324797257365e-03       9.753716432243e+03 
       2.392682562900e-03       9.993049012187e+03 
       2.462550155146e-03       1.023697240414e+04 
       2.534457917919e-03       1.048549616781e+04 
       2.608465425274e-03       1.073862352815e+04 
       2.684633990860e-03       1.099635376854e+04 
       2.763026718718e-03       1.125867818393e+04 
       2.843708555556e-03       1.152558305562e+04 
       2.926746344566e-03       1.179704680047e+04 
       3.012208880792e-03       1.207303979498e+04 
       3.100166968130e-03       1.235352681937e+04 
       3.190693477991e-03       1.263846129316e+04 
       3.283863409664e-03       1.292779179423e+04 
       3.379753952460e-03       1.322145360664e+04 
       3.478444549660e-03       1.351937487586e+04 
       3.580016964326e-03       1.382147338390e+04 
       3.684555347050e-03       1.412765490987e+04 
       3.792146305661e-03       1.443781810244e+04 
       3.902878976984e-03       1.475184468913e+04 
       4.016845100688e-03       1.506960600946e+04 
       4.134139095287e-03       1.539097007081e+04 
       4.254858136364e-03       1.571577525824e+04 
       4.379102237084e-03       1.604386184958e+04 
       4.506974331045e-03       1.637504635436e+04 
       4.638580357563e-03       1.670908076380e+04 
       4.774029349438e-03       1.704585690541e+04 
       4.913433523283e-03       1.738506850510e+04 
       5.056908372497e-03       1.772659790002e+04 
       5.204572762948e-03       1.807007727059e+04 
       5.356549031448e-03       1.841524864371e+04 
       5.512963087109e-03       1.876180181835e+04 
       5.673944515656e-03       1.910942723374e+04 
       5.839626686785e-03       1.945779780973e+04 
       6.010146864658e-03       1.980656751086e+04 
       6.185646321622e-03       2.015535716731e+04 
       6.366270455252e-03       2.050378120310e+04 
       6.552168908807e-03       2.085143146270e+04 
       6.743495695211e-03       2.119787564046e+04 
       6.940409324645e-03       2.154261032301e+04 
       7.143072935870e-03       2.188523644821e+04 
       7.351654431385e-03       2.222518284546e+04 
       7.566326616533e-03       2.256198150353e+04 
       7.787267342661e-03       2.289502508514e+04 
       8.014659654471e-03       2.322375307350e+04 
       8.248691941665e-03       2.354755836529e+04 
       8.489558095026e-03       2.386587075985e+04 
       8.737457667049e-03       2.417788408618e+04 
       8.992596037266e-03       2.448316706969e+04 
       9.255184582400e-03       2.478077538098e+04 
       9.525440851488e-03       2.507016376427e+04 
       9.803588746111e-03       2.535051447109e+04 
       1.008985870589e-02       2.562105551535e+04 
       1.038448789942e-02       2.588100884238e+04 
       1.068772042073e-02       2.612952794051e+04 
       1.099980749152e-02       2.636579996323e+04 
       1.132100766931e-02       2.658896191799e+04 
       1.165158706163e-02       2.679820462960e+04 
       1.199181954648e-02       2.699251295841e+04 
       1.234198699926e-02       2.717096091479e+04 
       1.270237952626e-02       2.733281690308e+04 
       1.307329570505e-02       2.747706594512e+04 
       1.345504283181e-02       2.760279606977e+04 
       1.384793717592e-02       2.770908027038e+04 
       1.425230424202e-02       2.779502509429e+04 
       1.466847903963e-02       2.785979291019e+04 
       1.509680636074e-02       2.790236121514e+04 
       1.553764106548e-02       2.792187016894e+04 
       1.599134837608e-02       2.791767271720e+04 
       1.645830417957e-02       2.788889738344e+04 
       1.693889533924e-02       2.783488259193e+04 
       1.743352001546e-02       2.775490067972e+04 
       1.794258799607e-02       2.764839924316e+04 
       1.846652103709e-02       2.751488820994e+04 
       1.900575321452e-02       2.735395041858e+04 
       1.956073128870e-02       2.716529196134e+04 
       2.013191508353e-02       2.694875282315e+04 
       2.071977788416e-02       2.670436667605e+04 
       2.132480685939e-02       2.643211078318e+04 
       2.194750351787e-02       2.613238264528e+04 
       2.258838421306e-02       2.580557855536e+04 
       2.324798071816e-02       2.545250064375e+04 
       2.392684090240e-02       2.507386912952e+04 
       2.462552955212e-02       2.467061823240e+04 
       2.534462939499e-02       2.424422252506e+04 
       2.608474240342e-02       2.379602314799e+04 
       2.684649147135e-02       2.332793453058e+04 
       2.763052257754e-02       2.284157870842e+04 
       2.843750756313e-02       2.233931503908e+04 
       2.926814766066e-02       2.182336720391e+04 
       3.012317791048e-02       2.129623342664e+04 
       3.100337258439e-02       2.076056688860e+04 
       3.190955170259e-02       2.021930587224e+04 
       3.284258867309e-02       1.967520745684e+04 
       3.380341900404e-02       1.913128131757e+04 
       3.479304993695e-02       1.859058052106e+04 
       3.581257073019e-02       1.805603243604e+04 
       3.686316319320e-02       1.753055967307e+04 
       3.794611194825e-02       1.701695615640e+04 
       3.906281379287e-02       1.651797755891e+04 
       4.021478547217e-02       1.603601425035e+04 
       4.140366916454e-02       1.557322314230e+04 
       4.263123505067e-02       1.513159317428e+04 
       4.389938048166e-02       1.471256819788e+04 
       4.521012548301e-02       1.431725575033e+04 
       4.656560461099e-02       1.394622670312e+04 
       4.796805548637e-02       1.359938315385e+04 
       4.941980463150e-02       1.327605406383e+04 
       5.092325148804e-02       1.297482686291e+04 
       5.248085165900e-02       1.269343259658e+04 
       5.409510047684e-02       1.242870145561e+04 
       5.576851794029e-02       1.217664861412e+04 
       5.750363590034e-02       1.193225525958e+04 
       5.930298813551e-02       1.168984029097e+04 
       6.116910367850e-02       1.144286827327e+04 
       6.310450347687e-02       1.118478815016e+04 
       6.511170022679e-02       1.090895705033e+04 
       6.719320103232e-02       1.060911643403e+04 
       6.935151242450e-02       1.028043354223e+04 
       7.158914722410e-02       9.919834271008e+03 
       7.390863273767e-02       9.526445384756e+03 
       7.631251982442e-02       9.102514052421e+03 
       7.880339244491e-02       8.653155837610e+03 
       8.138387738640e-02       8.186586753853e+03 
       8.405665394311e-02       7.713509137210e+03 
       8.682446340420e-02       7.246553903408e+03 
       8.969011826444e-02       6.798593996635e+03 
       9.265651112018e-02       6.382219101046e+03 
       9.572662324704e-02       6.007498332665e+03 
       9.890353287826e-02       5.681516445002e+03 
       1.021904232141e-01       5.407237080095e+03 
       1.055905901978e-01       5.182681928472e+03 
       1.091074500934e-01       5.001156950579e+03 
       1.127445468941e-01       4.851188133534e+03 
       1.165055595874e-01       4.717769404785e+03 
       1.203943092911e-01       4.583783992123e+03 
       1.244147662697e-01       4.433044152391e+03 
       1.285710568303e-01       4.253313599153e+03 
       1.328674700911e-01       4.039526943321e+03 
       1.373084646056e-01       3.795399333520e+03 
       1.418986748210e-01       3.533127797271e+03 
       1.466429173391e-01       3.270530387457e+03 
       1.515461969428e-01       3.026574074894e+03 
       1.566137123413e-01       2.816780919247e+03 
       1.618508615817e-01       2.649035381358e+03 
       1.672632470626e-01       2.522094816391e+03 
       1.728566800795e-01       2.425264960902e+03 
       1.786371848180e-01       2.342545299829e+03 
       1.846110017042e-01       2.254919114869e+03 
       1.907845900045e-01       2.147355982859e+03 
       1.971646295613e-01       2.016381547710e+03 
       2.037580215324e-01       1.871034629045e+03 
       2.105718879931e-01       1.727409696945e+03 
       2.176135702436e-01       1.600707875690e+03 
       2.248906256537e-01       1.499589760152e+03 
       2.324108228622e-01       1.422974957432e+03 
       2.401821351383e-01       1.360017484197e+03 
       2.482127317005e-01       1.296256997042e+03 
       2.565109667824e-01       1.222268553649e+03 
       2.650853662287e-01       1.138234743482e+03 
       2.739446114046e-01       1.053495777777e+03 
       2.830975202080e-01       9.793713162105e+02 
       2.925530249865e-01       9.199453653698e+02 
       3.023201471855e-01       8.706320412361e+02 
       3.124079685928e-01       8.228944791662e+02 
       3.228255990988e-01       7.709661011510e+02 
       3.335821409741e-01       7.169740007242e+02 
       3.446866497744e-01       6.667747192378e+02 
       3.561480921288e-01       6.241605572753e+02 
       3.679753008612e-01       5.869945381965e+02 
       3.801769281432e-01       5.508272417930e+02 
       3.927613976821e-01       5.140623592369e+02 
       4.057368573325e-01       4.787985807404e+02 
       4.191111339651e-01       4.471707563673e+02 
       4.328916929461e-01       4.188768254015e+02 
       4.470856051459e-01       3.919341270241e+02 
       4.616995249803e-01       3.656881175756e+02 
       4.767396835364e-01       3.410929092256e+02 
       4.922119012726e-01       3.188401522983e+02 
       5.081216249989e-01       2.981141362119e+02 
       5.244739937188e-01       2.783145611018e+02 
       5.412739373025e-01       2.598194354076e+02 
       5.585263107358e-01       2.427738261070e+02 
       5.762360647597e-01       2.268702955741e+02 
       5.944084510740e-01       2.119000482460e+02 
       6.130492570340e-01       1.979723056706e+02 
       6.321650611971e-01       1.850447435273e+02 
       6.517634975818e-01       1.729477176518e+02 
       6.718535136352e-01       1.616475907412e+02 
       6.924456052337e-01       1.511332245837e+02 
       7.135520120448e-01       1.413195006213e+02 
       7.351868585410e-01       1.321534523267e+02 
       7.573662298202e-01       1.236014691659e+02 
