# Transfer functions T_i(k) for adiabatic (AD) mode (normalized to initial curvature=1) at redshift z=99
# for k=1.00899e-05 to 285.831 h/Mpc,
# number of wavenumbers equal to 587
# t_i   stands for theta_i(k,z) with above normalization 
# t_tot stands for (sum_i [rho_i+p_i] theta_i)/(sum_i [rho_i+p_i]))(k,z)
#
#    1:k (h/Mpc)              2:t_g                    3:t_b                    4:t_cdm                  5:t_dmeff                6:t_ur                   7:t_tot              
       1.008985870272e-05       1.525905922919e-08       1.525921710539e-08       1.525921726312e-08       1.525921726222e-08       1.525904874106e-08       1.525921102442e-08 
       1.038448789616e-05       1.616320532623e-08       1.616338228726e-08       1.616338246306e-08       1.616338246205e-08       1.616319356556e-08       1.616337547032e-08 
       1.068772041737e-05       1.712092422685e-08       1.712112259077e-08       1.712112278679e-08       1.712112278567e-08       1.712091103879e-08       1.712111494842e-08 
       1.099980748807e-05       1.813539017024e-08       1.813561253739e-08       1.813561275602e-08       1.813561275475e-08       1.813537538109e-08       1.813560396929e-08 
       1.132100766576e-05       1.920996546298e-08       1.921021475027e-08       1.921021499419e-08       1.921021499277e-08       1.920994887784e-08       1.921020514387e-08 
       1.165158705797e-05       2.034821162038e-08       2.034849109996e-08       2.034849137217e-08       2.034849137058e-08       2.034819302063e-08       2.034848032899e-08 
       1.199181954271e-05       2.155390116796e-08       2.155421451048e-08       2.155421481435e-08       2.155421481257e-08       2.155388030831e-08       2.155420243329e-08 
       1.234198699538e-05       2.283103014175e-08       2.283138146496e-08       2.283138180426e-08       2.283138180226e-08       2.283100674703e-08       2.283136792264e-08 
       1.270237952227e-05       2.418383132841e-08       2.418422525234e-08       2.418422563129e-08       2.418422562904e-08       2.418380508989e-08       2.418421006659e-08 
       1.307329570095e-05       2.561678829441e-08       2.561722999940e-08       2.561723042274e-08       2.561723042022e-08       2.561675886574e-08       2.561721297031e-08 
       1.345504282758e-05       2.713465023017e-08       2.713514553076e-08       2.713514600379e-08       2.713514600097e-08       2.713461722278e-08       2.713512643393e-08 
       1.384793717157e-05       2.874244769931e-08       2.874300311731e-08       2.874300364599e-08       2.874300364282e-08       2.874241067725e-08       2.874298170103e-08 
       1.425230423754e-05       3.044550929739e-08       3.044613214934e-08       3.044613274033e-08       3.044613273677e-08       3.044546777155e-08       3.044610813124e-08 
       1.466847903501e-05       3.224947930788e-08       3.225017780195e-08       3.225017846272e-08       3.225017845874e-08       3.224943272954e-08       3.225015086523e-08 
       1.509680635597e-05       3.416033640159e-08       3.416111974633e-08       3.416112048526e-08       3.416112048078e-08       3.416028415512e-08       3.416108953557e-08 
       1.553764106052e-05       3.618441344339e-08       3.618529196967e-08       3.618529279614e-08       3.618529279113e-08       3.618435483808e-08       3.618525808613e-08 
       1.599134837084e-05       3.832841848734e-08       3.832940377264e-08       3.832940469725e-08       3.832940469163e-08       3.832835274785e-08       3.832936576951e-08 
       1.645830417382e-05       4.059945694272e-08       4.060056199461e-08       4.060056302890e-08       4.060056302259e-08       4.059938320152e-08       4.060051936966e-08 
       1.693889533242e-05       4.300505521064e-08       4.300629459849e-08       4.300629575563e-08       4.300629574855e-08       4.300497249257e-08       4.300624678930e-08 
       1.743352000622e-05       4.555318553568e-08       4.555457559511e-08       4.555457688954e-08       4.555457688160e-08       4.555309274785e-08       4.555452197085e-08 
       1.794258798126e-05       4.825229233601e-08       4.825385145269e-08       4.825385290212e-08       4.825385289321e-08       4.825218824704e-08       4.825379130451e-08 
       1.846652100954e-05       5.111132040227e-08       5.111306916238e-08       5.111307078597e-08       5.111307077597e-08       5.111120363347e-08       5.111300169604e-08 
       1.900575315847e-05       5.413974434857e-08       5.414170585355e-08       5.414170766936e-08       5.414170765814e-08       5.413961336286e-08       5.414163017517e-08 
       1.956073117042e-05       5.734760000379e-08       5.734980017292e-08       5.734980220204e-08       5.734980218946e-08       5.734745307649e-08       5.734971528026e-08 
       2.013191483291e-05       6.074551772365e-08       6.074798559366e-08       6.074798787362e-08       6.074798785951e-08       6.074535287015e-08       6.074789037426e-08 
       2.071977735946e-05       6.434475767648e-08       6.434752576489e-08       6.434752831264e-08       6.434752829680e-08       6.434457276301e-08       6.434741895419e-08 
       2.132480578171e-05       6.815724676257e-08       6.816035157497e-08       6.816035442551e-08       6.816035440774e-08       6.815703934085e-08       6.816023176532e-08 
       2.194750135285e-05       7.219561345588e-08       7.219909982271e-08       7.219910304600e-08       7.219910302607e-08       7.219538054540e-08       7.219896530759e-08 
       2.258837996296e-05       7.647324874795e-08       7.647715933252e-08       7.647716293980e-08       7.647716291744e-08       7.647298747926e-08       7.647700844284e-08 
       2.324797256634e-05       8.100432215493e-08       8.100870897554e-08       8.100871301572e-08       8.100871299064e-08       8.100402905351e-08       8.100853970493e-08 
       2.392682562148e-05       8.580385682211e-08       8.580877099261e-08       8.580877546865e-08       8.580877544052e-08       8.580352835369e-08       8.580858133141e-08 
       2.462550154372e-05       9.088773758783e-08       9.089325140017e-08       9.089325641949e-08       9.089325638792e-08       9.088736905444e-08       9.089303859385e-08 
       2.534457917122e-05       9.627281128036e-08       9.627900349509e-08       9.627900917063e-08       9.627900913521e-08       9.627239747135e-08       9.627876453793e-08 
       2.608465424454e-05       1.019769357913e-07       1.019838821837e-07       1.019838885427e-07       1.019838885029e-07       1.019764715476e-07       1.019836141160e-07 
       2.684633990017e-05       1.080190027296e-07       1.080267949458e-07       1.080268020705e-07       1.080268020259e-07       1.080184819058e-07       1.080264942293e-07 
       2.763026717849e-05       1.144190326983e-07       1.144277718923e-07       1.144277798683e-07       1.144277798183e-07       1.144184484470e-07       1.144274346163e-07 
       2.843708554663e-05       1.211982323089e-07       1.212080300559e-07       1.212080389352e-07       1.212080388791e-07       1.211975772433e-07       1.212076518754e-07 
       2.926746343646e-05       1.283790458032e-07       1.283900395560e-07       1.283900495250e-07       1.283900494620e-07       1.283783107758e-07       1.283896152159e-07 
       3.012208879845e-05       1.359852616941e-07       1.359976053799e-07       1.359976166315e-07       1.359976165609e-07       1.359844365057e-07       1.359971289833e-07 
       3.100166967156e-05       1.440421061046e-07       1.440559495954e-07       1.440559621853e-07       1.440559621060e-07       1.440411804495e-07       1.440554152883e-07 
       3.190693476988e-05       1.525762432996e-07       1.525917761674e-07       1.525917902946e-07       1.525917902057e-07       1.525752047105e-07       1.525911766579e-07 
       3.283863408632e-05       1.616159575477e-07       1.616333807210e-07       1.616333965265e-07       1.616333964267e-07       1.616147925405e-07       1.616327082195e-07 
       3.379753951399e-05       1.711911837227e-07       1.712107300572e-07       1.712107477717e-07       1.712107476598e-07       1.711898766970e-07       1.712099755912e-07 
       3.478444548567e-05       1.813336407216e-07       1.813555692528e-07       1.813555891095e-07       1.813555889839e-07       1.813321743485e-07       1.813547228225e-07 
       3.580016963202e-05       1.920769228896e-07       1.921015238531e-07       1.921015461121e-07       1.921015459712e-07       1.920752777364e-07       1.921005742528e-07 
       3.684555345892e-05       2.034566096689e-07       2.034842109947e-07       2.034842359584e-07       2.034842358004e-07       2.034547638621e-07       2.034831455719e-07 
       3.792146304469e-05       2.155103939269e-07       2.155413599148e-07       2.155413879055e-07       2.155413877282e-07       2.155083230316e-07       2.155401646004e-07 
       3.902878975758e-05       2.282781925476e-07       2.283129338129e-07       2.283129651992e-07       2.283129650002e-07       2.282758691092e-07       2.283115927547e-07 
       4.016845099426e-05       2.418022865496e-07       2.418412641840e-07       2.418412993800e-07       2.418412991567e-07       2.417996797581e-07       2.418397595818e-07 
       4.134139093988e-05       2.561274611907e-07       2.561711912341e-07       2.561712307027e-07       2.561712304522e-07       2.561245364884e-07       2.561695031647e-07 
       4.254858135027e-05       2.713011478971e-07       2.713502111228e-07       2.713502553897e-07       2.713502551086e-07       2.712978664747e-07       2.713483171689e-07 
       4.379102235708e-05       2.873735903855e-07       2.874286355670e-07       2.874286852079e-07       2.874286848926e-07       2.873699087817e-07       2.874265106757e-07 
       4.506974329629e-05       3.043980003867e-07       3.044597562885e-07       3.044598119449e-07       3.044598115910e-07       3.043938698350e-07       3.044573723143e-07 
       4.638580356106e-05       3.224307350371e-07       3.225000219536e-07       3.225000843830e-07       3.225000839860e-07       3.224261006751e-07       3.224973472454e-07 
       4.774029347938e-05       3.415314581516e-07       3.416092203376e-07       3.416092902991e-07       3.416092898537e-07       3.415262579776e-07       3.416062183885e-07 
       4.913433521739e-05       3.617634567105e-07       3.618507011998e-07       3.618507799344e-07       3.618507794346e-07       3.617576215311e-07       3.618473333741e-07 
       5.056908370909e-05       3.831936642304e-07       3.832915487205e-07       3.832916370338e-07       3.832916364731e-07       3.831871173343e-07       3.832877701477e-07 
       5.204572761313e-05       4.058930038152e-07       4.060028271838e-07       4.060029262359e-07       4.060029256068e-07       4.058856584060e-07       4.059985877159e-07 
       5.356549029765e-05       4.299365924666e-07       4.300598120628e-07       4.300599231758e-07       4.300599224699e-07       4.299283510717e-07       4.300550554484e-07 
       5.512963085377e-05       4.554039870880e-07       4.555422386203e-07       4.555423632705e-07       4.555423624786e-07       4.553947403716e-07       4.555369017188e-07 
       5.673944513873e-05       4.823795057109e-07       4.825345799236e-07       4.825347194473e-07       4.825347185587e-07       4.823691331620e-07       4.825285933714e-07 
       5.839626684951e-05       5.109522856902e-07       5.111262764157e-07       5.111264329561e-07       5.111264319591e-07       5.109406478207e-07       5.111195595993e-07 
       6.010146862770e-05       5.412168908544e-07       5.414121044233e-07       5.414122800278e-07       5.414122789091e-07       5.412038334237e-07       5.414045682862e-07 
       6.185646319679e-05       5.732734158996e-07       5.734924425338e-07       5.734926395321e-07       5.734926382770e-07       5.732587657290e-07       5.734839870826e-07 
       6.366270453251e-05       6.072278059524e-07       6.074736027674e-07       6.074738241373e-07       6.074738227291e-07       6.072113662059e-07       6.074641141147e-07 
       6.552168906749e-05       6.431924644046e-07       6.434682414384e-07       6.434684897579e-07       6.434684881779e-07       6.431740195366e-07       6.434575953997e-07 
       6.743495693093e-05       6.812862270821e-07       6.815956428799e-07       6.815959214357e-07       6.815959196629e-07       6.812655325216e-07       6.815836982174e-07 
       6.940409322464e-05       7.216350188655e-07       7.219821756930e-07       7.219824881811e-07       7.219824861920e-07       7.216118002168e-07       7.219687740450e-07 
       7.143072933625e-05       7.643721843620e-07       7.647616923556e-07       7.647620429189e-07       7.647620406871e-07       7.643461336518e-07       7.647466557526e-07 
       7.351654429076e-05       8.096389652091e-07       8.100759820682e-07       8.100763753234e-07       8.100763728193e-07       8.096097372549e-07       8.100591113779e-07 
       7.566326614156e-05       8.575849042400e-07       8.580752266058e-07       8.580756682436e-07       8.580756654341e-07       8.575521100787e-07       8.580562984148e-07 
       7.787267340214e-05       9.083683795262e-07       9.089185124357e-07       9.089190073184e-07       9.089190041660e-07       9.083315873577e-07       9.088972748764e-07 
       8.014659651953e-05       9.621571072438e-07       9.627743454892e-07       9.627749006617e-07       9.627748971248e-07       9.621158278387e-07       9.627505173172e-07 
       8.248691939074e-05       1.019128687367e-06       1.019821217973e-06       1.019821840791e-06       1.019821836823e-06       1.019082373490e-06       1.019794483130e-06 
       8.489558092359e-05       1.079471187756e-06       1.080248196451e-06       1.080248895170e-06       1.080248890717e-06       1.079419225404e-06       1.080218200327e-06 
       8.737457664304e-05       1.143383755336e-06       1.144255548523e-06       1.144256332347e-06       1.144256327351e-06       1.143325455836e-06       1.144221893200e-06 
       8.992596034440e-05       1.211077265305e-06       1.212055406122e-06       1.212056285497e-06       1.212056279891e-06       1.211011855591e-06       1.212017645252e-06 
       9.255184579492e-05       1.282775001299e-06       1.283872466270e-06       1.283873453665e-06       1.283873447375e-06       1.282701612085e-06       1.283830099519e-06 
       9.525440848495e-05       1.358713397011e-06       1.359944745487e-06       1.359945852522e-06       1.359945845465e-06       1.358631059787e-06       1.359897209694e-06 
       9.803588743031e-05       1.439142808237e-06       1.440524356062e-06       1.440525598034e-06       1.440525590116e-06       1.439050430242e-06       1.440471021836e-06 
       1.008985870272e-04       1.524328256613e-06       1.525878338536e-06       1.525879731967e-06       1.525879723083e-06       1.524224613248e-06       1.525818498124e-06 
       1.038448789616e-04       1.614550395727e-06       1.616289564772e-06       1.616291128065e-06       1.616291118098e-06       1.614434113830e-06       1.616222424690e-06 
       1.068772041737e-04       1.710106497968e-06       1.712057694180e-06       1.712059447165e-06       1.712059435981e-06       1.709976043206e-06       1.711982368188e-06 
       1.099980748807e-04       1.811310825150e-06       1.813500032329e-06       1.813501999095e-06       1.813501986547e-06       1.811164463164e-06       1.813415517968e-06 
       1.132100766576e-04       1.918496503634e-06       1.920952777768e-06       1.920954984452e-06       1.920954970373e-06       1.918332294812e-06       1.920857953404e-06 
       1.165158705797e-04       2.032016137934e-06       2.034772031511e-06       2.034774507303e-06       2.034774491505e-06       2.031831907501e-06       2.034665640435e-06 
       1.199181954271e-04       2.152242911746e-06       2.155334969033e-06       2.155337746747e-06       2.155337729022e-06       2.152036219459e-06       2.155215600487e-06 
       1.234198699538e-04       2.279571878666e-06       2.283041110912e-06       2.283044227428e-06       2.283044207540e-06       2.279339986642e-06       2.282907181748e-06 
       1.270237952227e-04       2.414421233094e-06       2.418313647283e-06       2.418317143935e-06       2.418317121620e-06       2.414161070248e-06       2.418163381476e-06 
       1.307329570095e-04       2.557233631924e-06       2.561600836345e-06       2.561604759472e-06       2.561604734434e-06       2.556941753342e-06       2.561432241622e-06 
       1.345504282758e-04       2.708477559548e-06       2.713377477693e-06       2.713381879470e-06       2.713381851378e-06       2.708150099908e-06       2.713188318142e-06 
       1.384793717157e-04       2.868648838129e-06       2.874146490371e-06       2.874151429422e-06       2.874151397902e-06       2.868281460304e-06       2.873934256204e-06 
       1.425230423754e-04       3.038272369547e-06       3.044440615675e-06       3.044446157395e-06       3.044446122029e-06       3.037860211428e-06       3.044202494231e-06 
       1.466847903501e-04       3.217903579944e-06       3.224824132321e-06       3.224830349834e-06       3.224830310153e-06       3.217441189074e-06       3.224556969029e-06 
       1.509680635597e-04       3.408130010653e-06       3.415894688626e-06       3.415901664393e-06       3.415901619870e-06       3.407611266772e-06       3.415594939066e-06 
       1.553764106052e-04       3.609573629806e-06       3.618285386104e-06       3.618293211886e-06       3.618293161931e-06       3.608991671278e-06       3.617949075535e-06 
       1.599134837084e-04       3.822892537364e-06       3.832666812487e-06       3.832675594734e-06       3.832675538683e-06       3.822239659018e-06       3.832289486730e-06 
       1.645830417382e-04       4.048782841613e-06       4.059749243890e-06       4.059759096544e-06       4.059759033654e-06       4.048050414607e-06       4.059325897977e-06 
       1.693889533242e-04       4.287981213008e-06       4.300285046421e-06       4.300296103755e-06       4.300296033192e-06       4.287159542285e-06       4.299810074198e-06 
       1.743352000622e-04       4.541266759007e-06       4.555071117400e-06       4.555083523383e-06       4.555083444210e-06       4.540344988623e-06       4.554538221328e-06 
       1.794258798126e-04       4.809464100536e-06       4.824951642397e-06       4.824965555568e-06       4.824965466734e-06       4.808430071056e-06       4.824353767295e-06 
       1.846652100954e-04       5.093443943259e-06       5.110820438993e-06       5.110836050840e-06       5.110835951167e-06       5.092283955425e-06       5.110149647333e-06 
       1.900575315847e-04       5.394129724537e-06       5.413624841592e-06       5.413642359208e-06       5.413642247373e-06       5.392828469066e-06       5.412872268383e-06 
       1.956073117042e-04       5.712494817485e-06       5.734367570487e-06       5.734387226411e-06       5.734387100930e-06       5.711035085557e-06       5.733523218042e-06 
       2.013191483291e-04       6.049571564251e-06       6.074111384645e-06       6.074133440028e-06       6.074133299236e-06       6.047934088329e-06       6.073164081668e-06 
       2.071977735946e-04       6.406449940579e-06       6.433981651936e-06       6.434006387713e-06       6.434006229742e-06       6.404613145455e-06       6.432918852080e-06 
       2.132480578171e-04       6.784281533198e-06       6.815170135485e-06       6.815197895646e-06       6.815197718400e-06       6.782221122821e-06       6.813977762525e-06 
       2.194750135285e-04       7.184284873866e-06       7.218939506204e-06       7.218970653476e-06       7.218970454604e-06       7.181973681739e-06       7.217601764372e-06 
       2.258837996296e-04       7.607747361719e-06       7.646627040201e-06       7.646661975327e-06       7.646661752189e-06       7.605154939251e-06       7.645126203592e-06 
       2.324797256634e-04       8.056029674290e-06       8.099649125331e-06       8.099688339256e-06       8.099688088891e-06       8.053121767113e-06       8.097965348343e-06 
