# Transfer functions T_i(k) for adiabatic (AD) mode (normalized to initial curvature=1) at redshift z=99
# for k=1.00899e-05 to 285.831 h/Mpc,
# number of wavenumbers equal to 587
# t_i   stands for theta_i(k,z) with above normalization 
# t_tot stands for (sum_i [rho_i+p_i] theta_i)/(sum_i [rho_i+p_i]))(k,z)
#
#    1:k (h/Mpc)              2:t_g                    3:t_b                    4:t_cdm                  5:t_dmeff                6:t_ur                   7:t_tot              
       1.008985870272e-05       1.525905922930e-08       1.525921710542e-08       1.525921726315e-08       1.525921726225e-08       1.525904874118e-08       1.525921102445e-08 
       1.038448789616e-05       1.616320532636e-08       1.616338228729e-08       1.616338246309e-08       1.616338246208e-08       1.616319356569e-08       1.616337547035e-08 
       1.068772041737e-05       1.712092422698e-08       1.712112259081e-08       1.712112278683e-08       1.712112278570e-08       1.712091103893e-08       1.712111494846e-08 
       1.099980748807e-05       1.813539017039e-08       1.813561253742e-08       1.813561275605e-08       1.813561275479e-08       1.813537538123e-08       1.813560396933e-08 
       1.132100766576e-05       1.920996546313e-08       1.921021475030e-08       1.921021499422e-08       1.921021499280e-08       1.920994887799e-08       1.921020514391e-08 
       1.165158705797e-05       2.034821162054e-08       2.034849110000e-08       2.034849137220e-08       2.034849137062e-08       2.034819302079e-08       2.034848032903e-08 
       1.199181954271e-05       2.155390116813e-08       2.155421451052e-08       2.155421481439e-08       2.155421481261e-08       2.155388030848e-08       2.155420243333e-08 
       1.234198699538e-05       2.283103014193e-08       2.283138146500e-08       2.283138180430e-08       2.283138180230e-08       2.283100674721e-08       2.283136792269e-08 
       1.270237952227e-05       2.418383132860e-08       2.418422525238e-08       2.418422563133e-08       2.418422562909e-08       2.418380509008e-08       2.418421006664e-08 
       1.307329570095e-05       2.561678829460e-08       2.561722999945e-08       2.561723042279e-08       2.561723042027e-08       2.561675886594e-08       2.561721297037e-08 
       1.345504282758e-05       2.713465023038e-08       2.713514553081e-08       2.713514600384e-08       2.713514600102e-08       2.713461722299e-08       2.713512643398e-08 
       1.384793717157e-05       2.874244769954e-08       2.874300311736e-08       2.874300364604e-08       2.874300364287e-08       2.874241067748e-08       2.874298170109e-08 
       1.425230423754e-05       3.044550929763e-08       3.044613214940e-08       3.044613274038e-08       3.044613273683e-08       3.044546777180e-08       3.044610813130e-08 
       1.466847903501e-05       3.224947930812e-08       3.225017780201e-08       3.225017846278e-08       3.225017845880e-08       3.224943272979e-08       3.225015086529e-08 
       1.509680635597e-05       3.416033640186e-08       3.416111974639e-08       3.416112048532e-08       3.416112048085e-08       3.416028415539e-08       3.416108953564e-08 
       1.553764106052e-05       3.618441344367e-08       3.618529196973e-08       3.618529279621e-08       3.618529279119e-08       3.618435483837e-08       3.618525808621e-08 
       1.599134837084e-05       3.832841848763e-08       3.832940377271e-08       3.832940469732e-08       3.832940469170e-08       3.832835274815e-08       3.832936576959e-08 
       1.645830417382e-05       4.059945694303e-08       4.060056199468e-08       4.060056302897e-08       4.060056302266e-08       4.059938320184e-08       4.060051936974e-08 
       1.693889533242e-05       4.300505521097e-08       4.300629459857e-08       4.300629575571e-08       4.300629574863e-08       4.300497249291e-08       4.300624678939e-08 
       1.743352000622e-05       4.555318553603e-08       4.555457559520e-08       4.555457688962e-08       4.555457688168e-08       4.555309274821e-08       4.555452197094e-08 
       1.794258798126e-05       4.825229233639e-08       4.825385145278e-08       4.825385290221e-08       4.825385289330e-08       4.825218824743e-08       4.825379130461e-08 
       1.846652100954e-05       5.111132040267e-08       5.111306916247e-08       5.111307078606e-08       5.111307077607e-08       5.111120363388e-08       5.111300169615e-08 
       1.900575315847e-05       5.413974434899e-08       5.414170585365e-08       5.414170766946e-08       5.414170765824e-08       5.413961336329e-08       5.414163017528e-08 
       1.956073117042e-05       5.734760000423e-08       5.734980017302e-08       5.734980220215e-08       5.734980218957e-08       5.734745307694e-08       5.734971528037e-08 
       2.013191483291e-05       6.074551772428e-08       6.074798559381e-08       6.074798787378e-08       6.074798785967e-08       6.074535287079e-08       6.074789037444e-08 
       2.071977735946e-05       6.434475767698e-08       6.434752576500e-08       6.434752831275e-08       6.434752829692e-08       6.434457276352e-08       6.434741895432e-08 
       2.132480578171e-05       6.815724676310e-08       6.816035157509e-08       6.816035442563e-08       6.816035440787e-08       6.815703934139e-08       6.816023176546e-08 
       2.194750135285e-05       7.219561345644e-08       7.219909982284e-08       7.219910304612e-08       7.219910302620e-08       7.219538054598e-08       7.219896530774e-08 
       2.258837996296e-05       7.647324874854e-08       7.647715933265e-08       7.647716293994e-08       7.647716291759e-08       7.647298747986e-08       7.647700844300e-08 
       2.324797256634e-05       8.100432215556e-08       8.100870897568e-08       8.100871301587e-08       8.100871299079e-08       8.100402905415e-08       8.100853970510e-08 
       2.392682562148e-05       8.580385682278e-08       8.580877099277e-08       8.580877546881e-08       8.580877544067e-08       8.580352835437e-08       8.580858133158e-08 
       2.462550154372e-05       9.088773758854e-08       9.089325140033e-08       9.089325641965e-08       9.089325638809e-08       9.088736905516e-08       9.089303859404e-08 
       2.534457917122e-05       9.627281128110e-08       9.627900349526e-08       9.627900917080e-08       9.627900913539e-08       9.627239747211e-08       9.627876453812e-08 
       2.608465424454e-05       1.019769357921e-07       1.019838821839e-07       1.019838885429e-07       1.019838885031e-07       1.019764715484e-07       1.019836141162e-07 
       2.684633990017e-05       1.080190027305e-07       1.080267949460e-07       1.080268020707e-07       1.080268020261e-07       1.080184819067e-07       1.080264942295e-07 
       2.763026717849e-05       1.144190326992e-07       1.144277718925e-07       1.144277798685e-07       1.144277798185e-07       1.144184484479e-07       1.144274346166e-07 
       2.843708554663e-05       1.211982323099e-07       1.212080300562e-07       1.212080389354e-07       1.212080388793e-07       1.211975772442e-07       1.212076518757e-07 
       2.926746343646e-05       1.283790458042e-07       1.283900395562e-07       1.283900495252e-07       1.283900494622e-07       1.283783107768e-07       1.283896152161e-07 
       3.012208879845e-05       1.359852616951e-07       1.359976053801e-07       1.359976166317e-07       1.359976165611e-07       1.359844365068e-07       1.359971289835e-07 
       3.100166967156e-05       1.440421061057e-07       1.440559495956e-07       1.440559621855e-07       1.440559621063e-07       1.440411804507e-07       1.440554152886e-07 
       3.190693476988e-05       1.525762433008e-07       1.525917761677e-07       1.525917902948e-07       1.525917902059e-07       1.525752047117e-07       1.525911766582e-07 
       3.283863408632e-05       1.616159575489e-07       1.616333807213e-07       1.616333965268e-07       1.616333964270e-07       1.616147925418e-07       1.616327082199e-07 
       3.379753951399e-05       1.711911837240e-07       1.712107300575e-07       1.712107477720e-07       1.712107476601e-07       1.711898766984e-07       1.712099755916e-07 
       3.478444548567e-05       1.813336407230e-07       1.813555692531e-07       1.813555891099e-07       1.813555889843e-07       1.813321743499e-07       1.813547228228e-07 
       3.580016963202e-05       1.920769228910e-07       1.921015238534e-07       1.921015461124e-07       1.921015459715e-07       1.920752777380e-07       1.921005742532e-07 
       3.684555345892e-05       2.034566096705e-07       2.034842109951e-07       2.034842359588e-07       2.034842358007e-07       2.034547638637e-07       2.034831455723e-07 
       3.792146304469e-05       2.155103939286e-07       2.155413599152e-07       2.155413879059e-07       2.155413877286e-07       2.155083230333e-07       2.155401646008e-07 
       3.902878975758e-05       2.282781925494e-07       2.283129338134e-07       2.283129651996e-07       2.283129650006e-07       2.282758691110e-07       2.283115927552e-07 
       4.016845099426e-05       2.418022865515e-07       2.418412641844e-07       2.418412993804e-07       2.418412991571e-07       2.417996797600e-07       2.418397595823e-07 
       4.134139093988e-05       2.561274611926e-07       2.561711912346e-07       2.561712307031e-07       2.561712304527e-07       2.561245364904e-07       2.561695031653e-07 
       4.254858135027e-05       2.713011478992e-07       2.713502111233e-07       2.713502553901e-07       2.713502551091e-07       2.712978664768e-07       2.713483171695e-07 
       4.379102235708e-05       2.873735903877e-07       2.874286355675e-07       2.874286852085e-07       2.874286848931e-07       2.873699087839e-07       2.874265106763e-07 
       4.506974329629e-05       3.043980003891e-07       3.044597562890e-07       3.044598119454e-07       3.044598115916e-07       3.043938698375e-07       3.044573723149e-07 
       4.638580356106e-05       3.224307350396e-07       3.225000219542e-07       3.225000843836e-07       3.225000839866e-07       3.224261006776e-07       3.224973472461e-07 
       4.774029347938e-05       3.415314581542e-07       3.416092203383e-07       3.416092902997e-07       3.416092898543e-07       3.415262579804e-07       3.416062183892e-07 
       4.913433521739e-05       3.617634567133e-07       3.618507012004e-07       3.618507799350e-07       3.618507794353e-07       3.617576215339e-07       3.618473333749e-07 
       5.056908370909e-05       3.831936642334e-07       3.832915487212e-07       3.832916370345e-07       3.832916364738e-07       3.831871173373e-07       3.832877701485e-07 
       5.204572761313e-05       4.058930038183e-07       4.060028271846e-07       4.060029262367e-07       4.060029256076e-07       4.058856584092e-07       4.059985877167e-07 
       5.356549029765e-05       4.299365924699e-07       4.300598120636e-07       4.300599231765e-07       4.300599224707e-07       4.299283510751e-07       4.300550554493e-07 
       5.512963085377e-05       4.554039870916e-07       4.555422386211e-07       4.555423632713e-07       4.555423624794e-07       4.553947403752e-07       4.555369017197e-07 
       5.673944513873e-05       4.823795057146e-07       4.825345799245e-07       4.825347194481e-07       4.825347185596e-07       4.823691331658e-07       4.825285933724e-07 
       5.839626684951e-05       5.109522856941e-07       5.111262764167e-07       5.111264329570e-07       5.111264319601e-07       5.109406478247e-07       5.111195596004e-07 
       6.010146862770e-05       5.412168908586e-07       5.414121044243e-07       5.414122800287e-07       5.414122789101e-07       5.412038334280e-07       5.414045682873e-07 
       6.185646319679e-05       5.732734159040e-07       5.734924425349e-07       5.734926395331e-07       5.734926382781e-07       5.732587657335e-07       5.734839870838e-07 
       6.366270453251e-05       6.072278059571e-07       6.074736027686e-07       6.074738241384e-07       6.074738227302e-07       6.072113662107e-07       6.074641141159e-07 
       6.552168906749e-05       6.431924644096e-07       6.434682414395e-07       6.434684897591e-07       6.434684881791e-07       6.431740195417e-07       6.434575954011e-07 
       6.743495693093e-05       6.812862270874e-07       6.815956428811e-07       6.815959214370e-07       6.815959196642e-07       6.812655325270e-07       6.815836982188e-07 
       6.940409322464e-05       7.216350188710e-07       7.219821756943e-07       7.219824881824e-07       7.219824861934e-07       7.216118002225e-07       7.219687740465e-07 
       7.143072933625e-05       7.643721843679e-07       7.647616923570e-07       7.647620429202e-07       7.647620406885e-07       7.643461336579e-07       7.647466557542e-07 
       7.351654429076e-05       8.096389652153e-07       8.100759820696e-07       8.100763753248e-07       8.100763728208e-07       8.096097372613e-07       8.100591113796e-07 
       7.566326614156e-05       8.575849042467e-07       8.580752266074e-07       8.580756682452e-07       8.580756654357e-07       8.575521100856e-07       8.580562984166e-07 
       7.787267340214e-05       9.083683795332e-07       9.089185124374e-07       9.089190073200e-07       9.089190041677e-07       9.083315873649e-07       9.088972748783e-07 
       8.014659651953e-05       9.621571072513e-07       9.627743454910e-07       9.627749006635e-07       9.627748971266e-07       9.621158278463e-07       9.627505173192e-07 
       8.248691939074e-05       1.019128687375e-06       1.019821217975e-06       1.019821840793e-06       1.019821836825e-06       1.019082373499e-06       1.019794483133e-06 
       8.489558092359e-05       1.079471187764e-06       1.080248196453e-06       1.080248895172e-06       1.080248890719e-06       1.079419225412e-06       1.080218200329e-06 
       8.737457664304e-05       1.143383755345e-06       1.144255548525e-06       1.144256332349e-06       1.144256327353e-06       1.143325455845e-06       1.144221893202e-06 
       8.992596034440e-05       1.211077265314e-06       1.212055406123e-06       1.212056285499e-06       1.212056279893e-06       1.211011855600e-06       1.212017645254e-06 
       9.255184579492e-05       1.282775001309e-06       1.283872466272e-06       1.283873453667e-06       1.283873447378e-06       1.282701612095e-06       1.283830099522e-06 
       9.525440848495e-05       1.358713397022e-06       1.359944745490e-06       1.359945852525e-06       1.359945845468e-06       1.358631059798e-06       1.359897209697e-06 
       9.803588743031e-05       1.439142808248e-06       1.440524356064e-06       1.440525598036e-06       1.440525590118e-06       1.439050430254e-06       1.440471021839e-06 
       1.008985870272e-04       1.524328256625e-06       1.525878338539e-06       1.525879731970e-06       1.525879723086e-06       1.524224613260e-06       1.525818498127e-06 
       1.038448789616e-04       1.614550395739e-06       1.616289564775e-06       1.616291128068e-06       1.616291118101e-06       1.614434113842e-06       1.616222424693e-06 
       1.068772041737e-04       1.710106497982e-06       1.712057694183e-06       1.712059447168e-06       1.712059435984e-06       1.709976043220e-06       1.711982368192e-06 
       1.099980748807e-04       1.811310825164e-06       1.813500032332e-06       1.813501999099e-06       1.813501986550e-06       1.811164463178e-06       1.813415517972e-06 
       1.132100766576e-04       1.918496503649e-06       1.920952777771e-06       1.920954984456e-06       1.920954970376e-06       1.918332294827e-06       1.920857953408e-06 
       1.165158705797e-04       2.032016137950e-06       2.034772031515e-06       2.034774507306e-06       2.034774491509e-06       2.031831907517e-06       2.034665640440e-06 
       1.199181954271e-04       2.152242911763e-06       2.155334969037e-06       2.155337746751e-06       2.155337729026e-06       2.152036219476e-06       2.155215600492e-06 
       1.234198699538e-04       2.279571878684e-06       2.283041110916e-06       2.283044227432e-06       2.283044207544e-06       2.279339986661e-06       2.282907181753e-06 
       1.270237952227e-04       2.414421233113e-06       2.418313647287e-06       2.418317143939e-06       2.418317121625e-06       2.414161070267e-06       2.418163381481e-06 
       1.307329570095e-04       2.557233631944e-06       2.561600836349e-06       2.561604759476e-06       2.561604734439e-06       2.556941753362e-06       2.561432241628e-06 
       1.345504282758e-04       2.708477559569e-06       2.713377477698e-06       2.713381879475e-06       2.713381851383e-06       2.708150099930e-06       2.713188318147e-06 
       1.384793717157e-04       2.868648838152e-06       2.874146490376e-06       2.874151429427e-06       2.874151397907e-06       2.868281460327e-06       2.873934256210e-06 
       1.425230423754e-04       3.038272369570e-06       3.044440615680e-06       3.044446157401e-06       3.044446122035e-06       3.037860211452e-06       3.044202494237e-06 
       1.466847903501e-04       3.217903579969e-06       3.224824132327e-06       3.224830349840e-06       3.224830310159e-06       3.217441189100e-06       3.224556969035e-06 
       1.509680635597e-04       3.408130010679e-06       3.415894688632e-06       3.415901664399e-06       3.415901619876e-06       3.407611266799e-06       3.415594939074e-06 
       1.553764106052e-04       3.609573629833e-06       3.618285386111e-06       3.618293211893e-06       3.618293161937e-06       3.608991671306e-06       3.617949075543e-06 
       1.599134837084e-04       3.822892537394e-06       3.832666812493e-06       3.832675594741e-06       3.832675538690e-06       3.822239659047e-06       3.832289486738e-06 
       1.645830417382e-04       4.048782841644e-06       4.059749243897e-06       4.059759096551e-06       4.059759033661e-06       4.048050414639e-06       4.059325897985e-06 
       1.693889533242e-04       4.287981213041e-06       4.300285046428e-06       4.300296103763e-06       4.300296033200e-06       4.287159542319e-06       4.299810074206e-06 
       1.743352000622e-04       4.541266759042e-06       4.555071117408e-06       4.555083523392e-06       4.555083444218e-06       4.540344988659e-06       4.554538221337e-06 
       1.794258798126e-04       4.809464100574e-06       4.824951642404e-06       4.824965555576e-06       4.824965466742e-06       4.808430071093e-06       4.824353767305e-06 
       1.846652100954e-04       5.093443943294e-06       5.110820439006e-06       5.110836050850e-06       5.110835951178e-06       5.092283955469e-06       5.110149647345e-06 
       1.900575315847e-04       5.394129724578e-06       5.413624841602e-06       5.413642359218e-06       5.413642247383e-06       5.392828469109e-06       5.412872268394e-06 
       1.956073117042e-04       5.712494817529e-06       5.734367570498e-06       5.734387226421e-06       5.734387100941e-06       5.711035085603e-06       5.733523218054e-06 
       2.013191483291e-04       6.049571564297e-06       6.074111384656e-06       6.074133440038e-06       6.074133299248e-06       6.047934088377e-06       6.073164081680e-06 
       2.071977735946e-04       6.406449940629e-06       6.433981651947e-06       6.434006387724e-06       6.434006229754e-06       6.404613145505e-06       6.432918852093e-06 
       2.132480578171e-04       6.784281533250e-06       6.815170135497e-06       6.815197895658e-06       6.815197718413e-06       6.782221122875e-06       6.813977762539e-06 
       2.194750135285e-04       7.184284873921e-06       7.218939506217e-06       7.218970653489e-06       7.218970454617e-06       7.181973681795e-06       7.217601764387e-06 
       2.258837996296e-04       7.607747361777e-06       7.646627040216e-06       7.646661975341e-06       7.646661752204e-06       7.605154939313e-06       7.645126203608e-06 
       2.324797256634e-04       8.056029674352e-06       8.099649125345e-06       8.099688339270e-06       8.099688088906e-06       8.053121767177e-06       8.097965348360e-06 
