# Transfer functions T_i(k) for adiabatic (AD) mode (normalized to initial curvature=1) at redshift z=99
# for k=1.00899e-05 to 285.831 h/Mpc,
# number of wavenumbers equal to 587
# t_i   stands for theta_i(k,z) with above normalization 
# t_tot stands for (sum_i [rho_i+p_i] theta_i)/(sum_i [rho_i+p_i]))(k,z)
#
#    1:k (h/Mpc)              2:t_g                    3:t_b                    4:t_cdm                  5:t_dmeff                6:t_ur                   7:t_tot              
       1.008985870272e-05       1.525905920631e-08       1.525921710002e-08       1.525921725783e-08       1.525921725675e-08       1.525904871762e-08       1.525921101828e-08 
       1.038448789616e-05       1.616320530200e-08       1.616338228157e-08       1.616338245746e-08       1.616338245626e-08       1.616319354074e-08       1.616337546382e-08 
       1.068772041737e-05       1.712092420117e-08       1.712112258475e-08       1.712112278086e-08       1.712112277952e-08       1.712091101249e-08       1.712111494154e-08 
       1.099980748807e-05       1.813539014305e-08       1.813561253101e-08       1.813561274973e-08       1.813561274825e-08       1.813537535323e-08       1.813560396200e-08 
       1.132100766576e-05       1.920996543417e-08       1.921021474351e-08       1.921021498753e-08       1.921021498587e-08       1.920994884833e-08       1.921020513615e-08 
       1.165158705797e-05       2.034821158987e-08       2.034849109280e-08       2.034849136511e-08       2.034849136328e-08       2.034819298937e-08       2.034848032081e-08 
       1.199181954271e-05       2.155390113565e-08       2.155421450290e-08       2.155421480688e-08       2.155421480483e-08       2.155388027520e-08       2.155420242463e-08 
       1.234198699538e-05       2.283103010752e-08       2.283138145693e-08       2.283138179634e-08       2.283138179407e-08       2.283100671196e-08       2.283136791346e-08 
       1.270237952227e-05       2.418383129215e-08       2.418422524383e-08       2.418422562290e-08       2.418422562037e-08       2.418380505274e-08       2.418421005687e-08 
       1.307329570095e-05       2.561678825600e-08       2.561722999039e-08       2.561723041386e-08       2.561723041103e-08       2.561675882639e-08       2.561721296002e-08 
       1.345504282758e-05       2.713465018949e-08       2.713514552121e-08       2.713514599439e-08       2.713514599123e-08       2.713461718110e-08       2.713512642302e-08 
       1.384793717157e-05       2.874244765622e-08       2.874300310720e-08       2.874300363602e-08       2.874300363251e-08       2.874241063310e-08       2.874298168948e-08 
       1.425230423754e-05       3.044550925174e-08       3.044613213863e-08       3.044613272977e-08       3.044613272585e-08       3.044546772479e-08       3.044610811900e-08 
       1.466847903501e-05       3.224947925952e-08       3.225017779060e-08       3.225017845154e-08       3.225017844717e-08       3.224943268000e-08       3.225015085226e-08 
       1.509680635597e-05       3.416033635037e-08       3.416111973431e-08       3.416112047341e-08       3.416112046853e-08       3.416028410265e-08       3.416108952183e-08 
       1.553764106052e-05       3.618441338914e-08       3.618529195693e-08       3.618529278360e-08       3.618529277814e-08       3.618435478250e-08       3.618525807159e-08 
       1.599134837084e-05       3.832841842986e-08       3.832940375915e-08       3.832940468396e-08       3.832940467787e-08       3.832835268897e-08       3.832936575411e-08 
       1.645830417382e-05       4.059945688185e-08       4.060056198032e-08       4.060056301482e-08       4.060056300802e-08       4.059938313915e-08       4.060051935334e-08 
       1.693889533242e-05       4.300505514616e-08       4.300629458335e-08       4.300629574072e-08       4.300629573312e-08       4.300497242651e-08       4.300624677202e-08 
       1.743352000622e-05       4.555318546738e-08       4.555457557908e-08       4.555457687374e-08       4.555457686525e-08       4.555309267788e-08       4.555452195254e-08 
       1.794258798126e-05       4.825229226366e-08       4.825385143571e-08       4.825385288539e-08       4.825385287590e-08       4.825218817292e-08       4.825379128512e-08 
       1.846652100954e-05       5.111132032563e-08       5.111306914439e-08       5.111307076825e-08       5.111307075763e-08       5.111120355496e-08       5.111300167550e-08 
       1.900575315847e-05       5.413974426739e-08       5.414170583450e-08       5.414170765059e-08       5.414170763872e-08       5.413961327970e-08       5.414163015341e-08 
       1.956073117042e-05       5.734759991780e-08       5.734980015273e-08       5.734980218216e-08       5.734980216889e-08       5.734745298840e-08       5.734971525720e-08 
       2.013191483291e-05       6.074551763261e-08       6.074798557230e-08       6.074798785258e-08       6.074798783773e-08       6.074535277689e-08       6.074789034986e-08 
       2.071977735946e-05       6.434475758000e-08       6.434752574224e-08       6.434752829033e-08       6.434752827372e-08       6.434457266416e-08       6.434741892833e-08 
       2.132480578171e-05       6.815724666038e-08       6.816035155098e-08       6.816035440188e-08       6.816035438329e-08       6.815703923615e-08       6.816023173792e-08 
       2.194750135285e-05       7.219561334763e-08       7.219909979730e-08       7.219910302096e-08       7.219910300016e-08       7.219538043450e-08       7.219896527857e-08 
       2.258837996296e-05       7.647324863328e-08       7.647715930560e-08       7.647716291329e-08       7.647716289000e-08       7.647298736178e-08       7.647700841210e-08 
       2.324797256634e-05       8.100432203347e-08       8.100870894702e-08       8.100871298764e-08       8.100871296157e-08       8.100402892908e-08       8.100853967237e-08 
       2.392682562148e-05       8.580385669346e-08       8.580877096241e-08       8.580877543890e-08       8.580877540973e-08       8.580352822188e-08       8.580858129692e-08 
       2.462550154372e-05       9.088773745155e-08       9.089325136818e-08       9.089325638797e-08       9.089325635530e-08       9.088736891482e-08       9.089303855731e-08 
       2.534457917122e-05       9.627281113600e-08       9.627900346120e-08       9.627900913725e-08       9.627900910067e-08       9.627239732346e-08       9.627876449923e-08 
       2.608465424454e-05       1.019769356384e-07       1.019838821478e-07       1.019838885073e-07       1.019838884663e-07       1.019764713909e-07       1.019836140750e-07 
       2.684633990017e-05       1.080190025677e-07       1.080267949078e-07       1.080268020331e-07       1.080268019872e-07       1.080184817399e-07       1.080264941859e-07 
       2.763026717849e-05       1.144190325267e-07       1.144277718520e-07       1.144277798286e-07       1.144277797772e-07       1.144184482713e-07       1.144274345703e-07 
       2.843708554663e-05       1.211982321272e-07       1.212080300133e-07       1.212080388932e-07       1.212080388356e-07       1.211975770571e-07       1.212076518267e-07 
       2.926746343646e-05       1.283790456107e-07       1.283900395108e-07       1.283900494804e-07       1.283900494159e-07       1.283783105786e-07       1.283896151643e-07 
       3.012208879845e-05       1.359852614902e-07       1.359976053320e-07       1.359976165844e-07       1.359976165121e-07       1.359844362969e-07       1.359971289286e-07 
       3.100166967156e-05       1.440421058886e-07       1.440559495447e-07       1.440559621353e-07       1.440559620543e-07       1.440411802283e-07       1.440554152304e-07 
       3.190693476988e-05       1.525762430708e-07       1.525917761137e-07       1.525917902417e-07       1.525917901509e-07       1.525752044761e-07       1.525911765965e-07 
       3.283863408632e-05       1.616159573054e-07       1.616333806642e-07       1.616333964704e-07       1.616333963687e-07       1.616147922922e-07       1.616327081546e-07 
       3.379753951399e-05       1.711911834660e-07       1.712107299969e-07       1.712107477123e-07       1.712107475983e-07       1.711898764341e-07       1.712099755224e-07 
       3.478444548567e-05       1.813336404497e-07       1.813555691889e-07       1.813555890467e-07       1.813555889189e-07       1.813321740699e-07       1.813547227496e-07 
       3.580016963202e-05       1.920769226015e-07       1.921015237855e-07       1.921015460455e-07       1.921015459022e-07       1.920752774414e-07       1.921005741756e-07 
       3.684555345892e-05       2.034566093638e-07       2.034842109231e-07       2.034842358879e-07       2.034842357273e-07       2.034547635495e-07       2.034831454901e-07 
       3.792146304469e-05       2.155103936037e-07       2.155413598389e-07       2.155413878308e-07       2.155413876508e-07       2.155083227006e-07       2.155401645137e-07 
       3.902878975758e-05       2.282781922053e-07       2.283129337326e-07       2.283129651200e-07       2.283129649182e-07       2.282758687585e-07       2.283115926630e-07 
       4.016845099426e-05       2.418022861870e-07       2.418412640989e-07       2.418412992961e-07       2.418412990699e-07       2.417996793866e-07       2.418397594846e-07 
       4.134139093988e-05       2.561274608066e-07       2.561711911440e-07       2.561712306139e-07       2.561712303603e-07       2.561245360949e-07       2.561695030618e-07 
       4.254858135027e-05       2.713011474902e-07       2.713502110273e-07       2.713502552956e-07       2.713502550112e-07       2.712978660579e-07       2.713483170599e-07 
       4.379102235708e-05       2.873735899546e-07       2.874286354659e-07       2.874286851083e-07       2.874286847895e-07       2.873699083402e-07       2.874265105602e-07 
       4.506974329629e-05       3.043979999302e-07       3.044597561813e-07       3.044598118393e-07       3.044598114818e-07       3.043938693674e-07       3.044573721919e-07 
       4.638580356106e-05       3.224307345536e-07       3.225000218401e-07       3.225000842712e-07       3.225000838703e-07       3.224261001797e-07       3.224973471158e-07 
       4.774029347938e-05       3.415314576394e-07       3.416092202174e-07       3.416092901806e-07       3.416092897311e-07       3.415262574530e-07       3.416062182512e-07 
       4.913433521739e-05       3.617634561680e-07       3.618507010724e-07       3.618507798089e-07       3.618507793048e-07       3.617576209753e-07       3.618473332287e-07 
       5.056908370909e-05       3.831936636558e-07       3.832915485856e-07       3.832916369010e-07       3.832916363356e-07       3.831871167456e-07       3.832877699937e-07 
       5.204572761313e-05       4.058930032065e-07       4.060028270409e-07       4.060029260952e-07       4.060029254611e-07       4.058856577824e-07       4.059985875527e-07 
       5.356549029765e-05       4.299365918218e-07       4.300598119115e-07       4.300599230267e-07       4.300599223156e-07       4.299283504112e-07       4.300550552755e-07 
       5.512963085377e-05       4.554039864051e-07       4.555422384600e-07       4.555423631126e-07       4.555423623151e-07       4.553947396720e-07       4.555369015357e-07 
       5.673944513873e-05       4.823795049875e-07       4.825345797538e-07       4.825347192800e-07       4.825347183855e-07       4.823691324209e-07       4.825285931775e-07 
       5.839626684951e-05       5.109522849239e-07       5.111262762358e-07       5.111264327789e-07       5.111264317757e-07       5.109406470357e-07       5.111195593939e-07 
       6.010146862770e-05       5.412168900428e-07       5.414121042328e-07       5.414122798401e-07       5.414122787149e-07       5.412038325922e-07       5.414045680686e-07 
       6.185646319679e-05       5.732734150399e-07       5.734924423320e-07       5.734926393333e-07       5.734926380712e-07       5.732587648482e-07       5.734839868521e-07 
       6.366270453251e-05       6.072278050418e-07       6.074736025536e-07       6.074738239267e-07       6.074738225111e-07       6.072113652729e-07       6.074641138705e-07 
       6.552168906749e-05       6.431924634400e-07       6.434682412119e-07       6.434684895349e-07       6.434684879470e-07       6.431740185484e-07       6.434575951411e-07 
       6.743495693093e-05       6.812862260604e-07       6.815956426400e-07       6.815959211994e-07       6.815959194184e-07       6.812655314749e-07       6.815836979435e-07 
       6.940409322464e-05       7.216350177832e-07       7.219821754388e-07       7.219824879308e-07       7.219824859330e-07       7.216117991081e-07       7.219687737548e-07 
       7.143072933625e-05       7.643721832156e-07       7.647616920865e-07       7.647620426537e-07       7.647620404127e-07       7.643461324774e-07       7.647466554452e-07 
       7.351654429076e-05       8.096389639948e-07       8.100759817831e-07       8.100763750425e-07       8.100763725286e-07       8.096097360109e-07       8.100591110523e-07 
       7.566326614156e-05       8.575849029537e-07       8.580752263037e-07       8.580756679461e-07       8.580756651261e-07       8.575521087608e-07       8.580562980699e-07 
       7.787267340214e-05       9.083683781638e-07       9.089185121158e-07       9.089190070032e-07       9.089190038399e-07       9.083315859620e-07       9.088972745111e-07 
       8.014659651953e-05       9.621571058007e-07       9.627743451504e-07       9.627749003280e-07       9.627748967793e-07       9.621158263603e-07       9.627505169303e-07 
       8.248691939074e-05       1.019128685838e-06       1.019821217614e-06       1.019821840438e-06       1.019821836457e-06       1.019082371925e-06       1.019794482721e-06 
       8.489558092359e-05       1.079471186137e-06       1.080248196070e-06       1.080248894795e-06       1.080248890330e-06       1.079419223745e-06       1.080218199893e-06 
       8.737457664304e-05       1.143383753621e-06       1.144255548121e-06       1.144256331950e-06       1.144256326940e-06       1.143325454079e-06       1.144221892740e-06 
       8.992596034440e-05       1.211077263488e-06       1.212055405695e-06       1.212056285077e-06       1.212056279456e-06       1.211011853730e-06       1.212017644765e-06 
       9.255184579492e-05       1.282774999374e-06       1.283872465818e-06       1.283873453220e-06       1.283873446915e-06       1.282701610114e-06       1.283830099003e-06 
       9.525440848495e-05       1.358713394973e-06       1.359944745009e-06       1.359945852051e-06       1.359945844977e-06       1.358631057699e-06       1.359897209148e-06 
       9.803588743031e-05       1.439142806078e-06       1.440524355555e-06       1.440525597534e-06       1.440525589599e-06       1.439050428031e-06       1.440471021257e-06 
       1.008985870272e-04       1.524328254326e-06       1.525878337999e-06       1.525879731438e-06       1.525879722535e-06       1.524224610905e-06       1.525818497511e-06 
       1.038448789616e-04       1.614550393304e-06       1.616289564203e-06       1.616291127505e-06       1.616291117518e-06       1.614434111348e-06       1.616222424040e-06 
       1.068772041737e-04       1.710106495403e-06       1.712057693577e-06       1.712059446572e-06       1.712059435367e-06       1.709976040578e-06       1.711982367500e-06 
       1.099980748807e-04       1.811310822432e-06       1.813500031691e-06       1.813501998467e-06       1.813501985896e-06       1.811164460380e-06       1.813415517239e-06 
       1.132100766576e-04       1.918496500756e-06       1.920952777092e-06       1.920954983786e-06       1.920954969683e-06       1.918332291863e-06       1.920857952632e-06 
       1.165158705797e-04       2.032016134886e-06       2.034772030795e-06       2.034774506597e-06       2.034774490775e-06       2.031831904378e-06       2.034665639618e-06 
       1.199181954271e-04       2.152242908517e-06       2.155334968274e-06       2.155337746000e-06       2.155337728248e-06       2.152036216151e-06       2.155215599621e-06 
       1.234198699538e-04       2.279571875245e-06       2.283041110108e-06       2.283044226637e-06       2.283044206721e-06       2.279339983138e-06       2.282907180830e-06 
       1.270237952227e-04       2.414421229471e-06       2.418313646432e-06       2.418317143096e-06       2.418317120752e-06       2.414161066536e-06       2.418163380504e-06 
       1.307329570095e-04       2.557233628087e-06       2.561600835443e-06       2.561604758584e-06       2.561604733515e-06       2.556941749411e-06       2.561432240593e-06 
       1.345504282758e-04       2.708477555483e-06       2.713377476738e-06       2.713381878529e-06       2.713381850404e-06       2.708150095745e-06       2.713188317051e-06 
       1.384793717157e-04       2.868648833824e-06       2.874146489359e-06       2.874151428426e-06       2.874151396871e-06       2.868281455894e-06       2.873934255049e-06 
       1.425230423754e-04       3.038272364986e-06       3.044440614603e-06       3.044446156340e-06       3.044446120937e-06       3.037860206756e-06       3.044202493007e-06 
       1.466847903501e-04       3.217903575114e-06       3.224824131186e-06       3.224830348716e-06       3.224830308995e-06       3.217441184126e-06       3.224556967733e-06 
       1.509680635597e-04       3.408130005537e-06       3.415894687423e-06       3.415901663209e-06       3.415901618644e-06       3.407611261531e-06       3.415594937694e-06 
       1.553764106052e-04       3.609573624387e-06       3.618285384830e-06       3.618293210632e-06       3.618293160632e-06       3.608991665727e-06       3.617949074081e-06 
       1.599134837084e-04       3.822892531625e-06       3.832666811137e-06       3.832675593405e-06       3.832675537308e-06       3.822239653138e-06       3.832289485189e-06 
       1.645830417382e-04       4.048782835534e-06       4.059749242461e-06       4.059759095136e-06       4.059759032197e-06       4.048050408380e-06       4.059325896345e-06 
       1.693889533242e-04       4.287981206570e-06       4.300285044907e-06       4.300296102264e-06       4.300296031649e-06       4.287159535690e-06       4.299810072469e-06 
       1.743352000622e-04       4.541266752188e-06       4.555071115797e-06       4.555083521804e-06       4.555083442575e-06       4.540344981637e-06       4.554538219497e-06 
       1.794258798126e-04       4.809464093315e-06       4.824951640697e-06       4.824965553894e-06       4.824965465002e-06       4.808430063657e-06       4.824353765356e-06 
       1.846652100954e-04       5.093443935607e-06       5.110820437196e-06       5.110836049069e-06       5.110835949334e-06       5.092283947591e-06       5.110149645280e-06 
       1.900575315847e-04       5.394129716435e-06       5.413624839687e-06       5.413642357331e-06       5.413642245431e-06       5.392828460767e-06       5.412872266208e-06 
       1.956073117042e-04       5.712494808904e-06       5.734367568469e-06       5.734387224422e-06       5.734387098872e-06       5.711035076767e-06       5.733523215738e-06 
       2.013191483291e-04       6.049571555162e-06       6.074111382507e-06       6.074133437921e-06       6.074133297057e-06       6.047934079019e-06       6.073164079227e-06 
       2.071977735946e-04       6.406449930954e-06       6.433981649670e-06       6.434006385481e-06       6.434006227433e-06       6.404613135594e-06       6.432918849494e-06 
       2.132480578171e-04       6.784281523004e-06       6.815170133085e-06       6.815197893282e-06       6.815197715954e-06       6.782221112378e-06       6.813977759786e-06 
       2.194750135285e-04       7.184284863069e-06       7.218939503663e-06       7.218970650973e-06       7.218970452013e-06       7.181973670679e-06       7.217601761471e-06 
       2.258837996296e-04       7.607747350283e-06       7.646627037510e-06       7.646661972676e-06       7.646661749445e-06       7.605154927539e-06       7.645126200519e-06 
       2.324797256634e-04       8.056029662179e-06       8.099649122479e-06       8.099688336447e-06       8.099688085985e-06       8.053121754709e-06       8.097965345089e-06 
