# Transfer functions T_i(k) for adiabatic (AD) mode (normalized to initial curvature=1) at redshift z=99
# for k=1.00899e-05 to 288.436 h/Mpc,
# number of wavenumbers equal to 1038
# t_i   stands for theta_i(k,z) with above normalization 
# t_tot stands for (sum_i [rho_i+p_i] theta_i)/(sum_i [rho_i+p_i]))(k,z)
#
#    1:k (h/Mpc)              2:t_g                    3:t_b                    4:t_cdm                  5:t_dmeff                6:t_ur                   7:t_tot              
       1.008985870272e-05       1.525905923016e-08       1.525921710562e-08       1.525921726335e-08       1.525921726246e-08       1.525904874206e-08       1.525921102468e-08 
       1.024593865065e-05       1.573478998507e-08       1.573495776658e-08       1.573495793369e-08       1.573495793275e-08       1.573477883648e-08       1.573495130364e-08 
       1.040443299810e-05       1.622535240382e-08       1.622553071584e-08       1.622553089292e-08       1.622553089192e-08       1.622534055303e-08       1.622552384680e-08 
       1.056537909342e-05       1.673120887672e-08       1.673139838317e-08       1.673139857083e-08       1.673139856976e-08       1.673119627939e-08       1.673139108242e-08 
       1.072881486267e-05       1.725283620885e-08       1.725303761558e-08       1.725303781447e-08       1.725303781333e-08       1.725282281782e-08       1.725302985589e-08 
       1.089477881860e-05       1.779072606938e-08       1.779094012687e-08       1.779094033767e-08       1.779094033646e-08       1.779071183451e-08       1.779093187926e-08 
       1.106331006970e-05       1.834538545491e-08       1.834561296105e-08       1.834561318450e-08       1.834561318322e-08       1.834537032290e-08       1.834560419475e-08 
       1.123444832946e-05       1.891733716725e-08       1.891757897036e-08       1.891757920725e-08       1.891757920589e-08       1.891732108142e-08       1.891756965264e-08 
       1.140823392565e-05       1.950712030609e-08       1.950737730812e-08       1.950737755927e-08       1.950737755782e-08       1.950710320618e-08       1.950736740416e-08 
       1.158470780992e-05       2.011529077701e-08       2.011556393691e-08       2.011556420320e-08       2.011556420165e-08       2.011527259893e-08       2.011555340971e-08 
       1.176391156738e-05       2.074242181531e-08       2.074271215265e-08       2.074271243501e-08       2.074271243337e-08       2.074240249095e-08       2.074270096286e-08 
       1.194588742640e-05       2.138910452624e-08       2.138941312502e-08       2.138941342445e-08       2.138941342271e-08       2.138908398315e-08       2.138940123082e-08 
       1.213067826860e-05       2.205594844193e-08       2.205627645471e-08       2.205627677227e-08       2.205627677041e-08       2.205592660309e-08       2.205626381162e-08 
       1.231832763895e-05       2.274358209583e-08       2.274393074803e-08       2.274393108483e-08       2.274393108286e-08       2.274355887936e-08       2.274391730875e-08 
       1.250887975598e-05       2.345265361472e-08       2.345302420938e-08       2.345302456662e-08       2.345302456452e-08       2.345262893353e-08       2.345300992363e-08 
       1.270237952227e-05       2.418383132996e-08       2.418422525270e-08       2.418422563165e-08       2.418422562941e-08       2.418380509148e-08       2.418421006701e-08 
       1.289887253498e-05       2.493780440928e-08       2.493822313138e-08       2.493822353338e-08       2.493822353100e-08       2.493777651506e-08       2.493820698897e-08 
       1.309840509662e-05       2.571528349718e-08       2.571572858569e-08       2.571572901217e-08       2.571572900964e-08       2.571525384256e-08       2.571571142607e-08 
       1.330102422595e-05       2.651700139730e-08       2.651747451723e-08       2.651747496970e-08       2.651747496702e-08       2.651696987097e-08       2.651745627615e-08 
       1.350677766905e-05       2.734371375484e-08       2.734421667650e-08       2.734421715659e-08       2.734421715373e-08       2.734368023848e-08       2.734419728564e-08 
       1.371571391061e-05       2.819619977049e-08       2.819673437615e-08       2.819673488557e-08       2.819673488254e-08       2.819616413829e-08       2.819671376287e-08 
       1.392788218531e-05       2.907526293462e-08       2.907583122559e-08       2.907583176617e-08       2.907583176294e-08       2.907522505278e-08       2.907580931265e-08 
       1.414333248944e-05       2.998173178428e-08       2.998233588845e-08       2.998233646212e-08       2.998233645869e-08       2.998169151056e-08       2.998231259371e-08 
       1.436211559270e-05       3.091646068388e-08       3.091710286372e-08       3.091710347255e-08       3.091710346890e-08       3.091641786704e-08       3.091707809988e-08 
       1.458428305012e-05       3.188033063015e-08       3.188101329124e-08       3.188101393740e-08       3.188101393352e-08       3.188028510936e-08       3.188098696544e-08 
       1.480988721427e-05       3.287425008215e-08       3.287497578223e-08       3.287497646806e-08       3.287497646394e-08       3.287420168642e-08       3.287494779575e-08 
       1.503898124752e-05       3.389915581722e-08       3.389992727580e-08       3.389992800378e-08       3.389992799940e-08       3.389910436473e-08       3.389989752369e-08 
       1.527161913464e-05       3.495601381350e-08       3.495683392215e-08       3.495683469490e-08       3.495683469024e-08       3.495595911093e-08       3.495680229280e-08 
       1.550785569548e-05       3.604582016002e-08       3.604669199322e-08       3.604669281353e-08       3.604669280857e-08       3.604576200181e-08       3.604665836796e-08 
       1.574774659788e-05       3.716960200313e-08       3.717052882488e-08       3.717052969572e-08       3.717052969045e-08       3.716954017073e-08       3.717049307773e-08 
       1.599134837084e-05       3.832841848979e-08       3.832940377321e-08       3.832940469782e-08       3.832940469221e-08       3.832835275036e-08       3.832936577017e-08 
       1.623871841779e-05       3.952336180871e-08       3.952440923701e-08       3.952441021853e-08       3.952441021257e-08       3.952329191634e-08       3.952436883577e-08 
       1.648991503011e-05       4.075555811831e-08       4.075667164734e-08       4.075667268938e-08       4.075667268304e-08       4.075548381031e-08       4.075662869525e-08 
       1.674499740094e-05       4.202616882755e-08       4.202735259751e-08       4.202735370382e-08       4.202735369708e-08       4.202608982466e-08       4.202730693472e-08 
       1.700402563902e-05       4.333639134263e-08       4.333764983608e-08       4.333765101068e-08       4.333765100351e-08       4.333630734779e-08       4.333760128958e-08 
       1.726706078297e-05       4.468746057609e-08       4.468879857889e-08       4.468879978728e-08       4.468879977966e-08       4.468737138764e-08       4.468874693460e-08 
       1.753416481556e-05       4.608064991922e-08       4.608207226028e-08       4.608207358427e-08       4.608207357617e-08       4.608055497410e-08       4.608201739028e-08 
       1.780540067841e-05       4.751727227015e-08       4.751878439658e-08       4.751878580334e-08       4.751878579472e-08       4.751717132177e-08       4.751872606209e-08 
       1.808083228677e-05       4.899868166039e-08       4.900028923199e-08       4.900029072465e-08       4.900029071549e-08       4.899857433584e-08       4.900022721305e-08 
       1.836052454460e-05       5.052627418798e-08       5.052798325400e-08       5.052798484065e-08       5.052798483090e-08       5.052616007488e-08       5.052791731907e-08 
       1.864454335985e-05       5.210148955009e-08       5.210330652868e-08       5.210330821281e-08       5.210330820245e-08       5.210136822616e-08       5.210323642828e-08 
       1.893295566000e-05       5.372581226918e-08       5.372774398786e-08       5.372774577652e-08       5.372774576551e-08       5.372568327560e-08       5.372766945911e-08 
       1.922582940784e-05       5.540077314051e-08       5.540282686910e-08       5.540282876795e-08       5.540282875623e-08       5.540063599574e-08       5.540274763071e-08 
       1.952323361747e-05       5.712795079713e-08       5.713013418630e-08       5.713013620033e-08       5.713013618788e-08       5.712780499095e-08       5.713004994143e-08 
       1.982523837057e-05       5.890897284240e-08       5.891129410542e-08       5.891129624676e-08       5.891129623352e-08       5.890881781264e-08       5.891120454060e-08 
       2.013191483291e-05       6.074551772772e-08       6.074798559459e-08       6.074798787456e-08       6.074798786048e-08       6.074535287427e-08       6.074789037535e-08 
       2.044333527112e-05       6.263931631274e-08       6.264194003192e-08       6.264194244916e-08       6.264194243418e-08       6.263914105433e-08       6.264183879402e-08 
       2.075957306974e-05       6.459215357418e-08       6.459494272923e-08       6.459494529530e-08       6.459494527938e-08       6.459196724501e-08       6.459483510468e-08 
       2.108070274847e-05       6.660586926865e-08       6.660883451955e-08       6.660883724391e-08       6.660883722698e-08       6.660567116742e-08       6.660872009690e-08 
       2.140679997977e-05       6.868236111835e-08       6.868551376312e-08       6.868551665645e-08       6.868551663845e-08       6.868215049737e-08       6.868539210677e-08 
       2.173794160667e-05       7.082358921092e-08       7.082693874927e-08       7.082694180786e-08       7.082694178872e-08       7.082336535392e-08       7.082680948134e-08 
       2.207420566089e-05       7.303155756399e-08       7.303512487220e-08       7.303512816863e-08       7.303512814828e-08       7.303131924103e-08       7.303498723269e-08 
       2.241567138123e-05       7.530836518063e-08       7.531215780318e-08       7.531216130352e-08       7.531216128188e-08       7.530811179735e-08       7.531201146666e-08 
       2.276241923221e-05       7.765615000261e-08       7.766018221430e-08       7.766018593194e-08       7.766018590893e-08       7.765588060213e-08       7.766002663011e-08 
       2.311453092307e-05       8.007712421236e-08       8.008141135315e-08       8.008141530256e-08       8.008141527809e-08       8.007683777520e-08       8.008124592974e-08 
       2.347208942701e-05       8.257357843990e-08       8.257812964724e-08       8.257813378880e-08       8.257813376278e-08       8.257327425177e-08       8.257795399173e-08 
       2.383517900075e-05       8.514784715545e-08       8.515268646334e-08       8.515269087051e-08       8.515269084284e-08       8.514752369229e-08       8.515249969094e-08 
       2.420388520435e-05       8.780236498209e-08       8.780751067244e-08       8.780751535817e-08       8.780751532875e-08       8.780202104009e-08       8.780731207489e-08 
       2.457829492143e-05       9.053963305772e-08       9.054510472239e-08       9.054510970357e-08       9.054510967229e-08       9.053926734073e-08       9.054489354298e-08 
       2.495849637959e-05       9.336222300208e-08       9.336804740044e-08       9.336805274450e-08       9.336805271124e-08       9.336183379374e-08       9.336782264219e-08 
       2.534457917122e-05       9.627281128652e-08       9.627900349653e-08       9.627900917206e-08       9.627900913669e-08       9.627239747766e-08       9.627876453958e-08 
       2.573663427464e-05       9.927413090988e-08       9.928071476275e-08       9.928072079372e-08       9.928072075611e-08       9.927369092208e-08       9.928046068939e-08 
       2.613475407549e-05       1.023690111472e-07       1.023760109828e-07       1.023760173902e-07       1.023760173502e-07       1.023685433290e-07       1.023757408523e-07 
       2.653903238852e-05       1.055603666486e-07       1.055678095115e-07       1.055678163226e-07       1.055678162801e-07       1.055598692212e-07       1.055675222826e-07 
       2.694956447972e-05       1.088512067529e-07       1.088591195495e-07       1.088591267844e-07       1.088591267392e-07       1.088506778736e-07       1.088588141797e-07 
       2.736644708873e-05       1.122446289031e-07       1.122530428148e-07       1.122530505065e-07       1.122530504585e-07       1.122440665380e-07       1.122527181050e-07 
       2.778977845167e-05       1.157438375583e-07       1.157527801314e-07       1.157527882915e-07       1.157527882404e-07       1.157432397095e-07       1.157524350052e-07 
       2.821965832426e-05       1.193521184860e-07       1.193616278228e-07       1.193616365301e-07       1.193616364758e-07       1.193514826771e-07       1.193612608461e-07 
       2.865618800534e-05       1.230728875902e-07       1.230829915029e-07       1.230830006793e-07       1.230830006215e-07       1.230722120269e-07       1.230826015202e-07 
       2.909947036075e-05       1.269096358799e-07       1.269203756161e-07       1.269203853437e-07       1.269203852823e-07       1.269089176832e-07       1.269199610694e-07 
       2.954960984757e-05       1.308659770483e-07       1.308773970832e-07       1.308774074255e-07       1.308774073602e-07       1.308652133729e-07       1.308769562764e-07 
       3.000671253870e-05       1.349456261831e-07       1.349577830960e-07       1.349577941817e-07       1.349577941122e-07       1.349448135325e-07       1.349573139121e-07 
       3.047088614791e-05       1.391524635633e-07       1.391653882582e-07       1.391654000353e-07       1.391653999614e-07       1.391515995170e-07       1.391648894344e-07 
       3.094224005516e-05       1.434904382121e-07       1.435041755160e-07       1.435041880084e-07       1.435041879298e-07       1.434895196428e-07       1.435036453064e-07 
       3.142088533243e-05       1.479636191139e-07       1.479782306222e-07       1.479782439237e-07       1.479782438402e-07       1.479626422700e-07       1.479776666858e-07 
       3.190693476988e-05       1.525762433093e-07       1.525917761697e-07       1.525917902968e-07       1.525917902080e-07       1.525752047205e-07       1.525911766605e-07 
       3.240050290240e-05       1.573326459170e-07       1.573491586060e-07       1.573491735915e-07       1.573491734971e-07       1.573315418007e-07       1.573485212526e-07 
       3.290170603662e-05       1.622373043736e-07       1.622548616145e-07       1.622548775405e-07       1.622548774400e-07       1.622361303986e-07       1.622541839374e-07 
       3.341066227834e-05       1.672948425676e-07       1.673135102043e-07       1.673135271288e-07       1.673135270220e-07       1.672935943181e-07       1.673127896605e-07 
       3.392749156031e-05       1.725100243316e-07       1.725298726648e-07       1.725298906509e-07       1.725298905373e-07       1.725086971049e-07       1.725291065403e-07 
       3.445231567053e-05       1.778877622178e-07       1.779088660136e-07       1.779088851287e-07       1.779088850079e-07       1.778863510121e-07       1.779080514221e-07 
       3.498525828094e-05       1.834331219315e-07       1.834555606039e-07       1.834555809192e-07       1.834555807908e-07       1.834316214297e-07       1.834546944795e-07 
       3.552644497655e-05       1.891513270596e-07       1.891751848769e-07       1.891752064675e-07       1.891752063310e-07       1.891497316147e-07       1.891742639657e-07 
       3.607600328507e-05       1.950477632642e-07       1.950731301376e-07       1.950731530844e-07       1.950731529392e-07       1.950460668623e-07       1.950721509685e-07 
       3.663406270690e-05       2.011279820213e-07       2.011549553416e-07       2.011549797389e-07       2.011549795845e-07       2.011261782175e-07       2.011539141615e-07 
       3.720075474571e-05       2.073977133487e-07       2.074263940415e-07       2.074264199789e-07       2.074264198147e-07       2.073957953516e-07       2.074252869526e-07 
       3.777621293938e-05       2.138628624128e-07       2.138933577850e-07       2.138933853560e-07       2.138933851814e-07       2.138608230196e-07       2.138921806418e-07 
       3.836057289149e-05       2.205295175472e-07       2.205619422509e-07       2.205619715551e-07       2.205619713695e-07       2.205273490953e-07       2.205606906247e-07 
       3.895397230327e-05       2.274039575026e-07       2.274384333590e-07       2.274384645066e-07       2.274384643093e-07       2.274016518188e-07       2.274371025471e-07 
       3.955655100607e-05       2.344926555638e-07       2.345293127594e-07       2.345293458675e-07       2.345293456576e-07       2.344902039566e-07       2.345278977360e-07 
       4.016845099426e-05       2.418022865651e-07       2.418412641876e-07       2.418412993835e-07       2.418412991604e-07       2.417996797739e-07       2.418397595860e-07 
       4.078981645874e-05       2.493397363825e-07       2.493811804745e-07       2.493812178877e-07       2.493812176504e-07       2.493369645990e-07       2.493795806544e-07 
       4.142079382089e-05       2.571121018495e-07       2.571561685696e-07       2.571562083407e-07       2.571562080884e-07       2.571091546246e-07       2.571544675028e-07 
       4.206153176708e-05       2.651267007694e-07       2.651735569779e-07       2.651735992602e-07       2.651735989919e-07       2.651235669743e-07       2.651717482258e-07 
       4.271218128370e-05       2.733910823881e-07       2.734409035220e-07       2.734409484679e-07       2.734409481827e-07       2.733877502444e-07       2.734389803069e-07 
       4.337289569278e-05       2.819130268889e-07       2.819660006989e-07       2.819660484775e-07       2.819660481742e-07       2.819094838400e-07       2.819639557730e-07 
       4.404383068805e-05       2.907005576837e-07       2.907568841873e-07       2.907569349789e-07       2.907569346563e-07       2.906967903672e-07       2.907547098295e-07 
       4.472514437169e-05       2.997619511088e-07       2.998218409467e-07       2.998218949204e-07       2.998218945775e-07       2.997579454125e-07       2.998195290086e-07 
       4.541699729155e-05       3.091057342914e-07       3.091694145929e-07       3.091694719858e-07       3.091694716212e-07       3.091014749909e-07       3.091669563322e-07 
       4.611955247898e-05       3.187407067819e-07       3.188084164403e-07       3.188084777293e-07       3.188084773415e-07       3.187361771122e-07       3.188058028327e-07 
       4.683297548730e-05       3.286759369953e-07       3.287479331081e-07       3.287479979733e-07       3.287479975609e-07       3.286711213898e-07       3.287451538111e-07 
       4.755743443073e-05       3.389207477385e-07       3.389973253195e-07       3.389973944730e-07       3.389973940345e-07       3.389156260046e-07       3.389943692963e-07 
       4.829310002407e-05       3.494848444793e-07       3.495662686532e-07       3.495663421545e-07       3.495663416882e-07       3.494793985994e-07       3.495631255202e-07 
       4.904014562292e-05       3.603781404371e-07       3.604647183327e-07       3.604647964674e-07       3.604647959717e-07       3.603723498545e-07       3.604613762407e-07 
       4.979874726447e-05       3.716108897604e-07       3.717029473780e-07       3.717030304437e-07       3.717030299165e-07       3.716047326336e-07       3.716993937448e-07 
       5.056908370909e-05       3.831936642550e-07       3.832915487263e-07       3.832916370395e-07       3.832916364790e-07       3.831871173594e-07       3.832877701543e-07 
       5.135133648233e-05       3.951373652036e-07       3.952414457134e-07       3.952415396022e-07       3.952415390062e-07       3.951304038758e-07       3.952374279477e-07 
       5.214568991780e-05       4.074532333235e-07       4.075639022642e-07       4.075640020772e-07       4.075640014434e-07       4.074458313415e-07       4.075596301534e-07 
       5.295233120056e-05       4.201528576688e-07       4.202705331323e-07       4.202706392596e-07       4.202706385857e-07       4.201449870719e-07       4.202659905476e-07 
       5.377145041121e-05       4.332481906229e-07       4.333733158646e-07       4.333734286932e-07       4.333734279766e-07       4.332398217790e-07       4.333684856851e-07 
