# Transfer functions T_i(k) for adiabatic (AD) mode (normalized to initial curvature=1) at redshift z=99
# for k=1.00899e-05 to 288.436 h/Mpc,
# number of wavenumbers equal to 1038
# t_i   stands for theta_i(k,z) with above normalization 
# t_tot stands for (sum_i [rho_i+p_i] theta_i)/(sum_i [rho_i+p_i]))(k,z)
#
#    1:k (h/Mpc)              2:t_g                    3:t_b                    4:t_cdm                  5:t_dmeff                6:t_ur                   7:t_tot              
       1.008985870272e-05       1.525905923023e-08       1.525921710564e-08       1.525921726336e-08       1.525921726247e-08       1.525904874212e-08       1.525921102470e-08 
       1.024593865065e-05       1.573478998513e-08       1.573495776659e-08       1.573495793371e-08       1.573495793276e-08       1.573477883654e-08       1.573495130365e-08 
       1.040443299810e-05       1.622535240389e-08       1.622553071586e-08       1.622553089294e-08       1.622553089193e-08       1.622534055310e-08       1.622552384682e-08 
       1.056537909342e-05       1.673120887679e-08       1.673139838318e-08       1.673139857084e-08       1.673139856977e-08       1.673119627946e-08       1.673139108244e-08 
       1.072881486267e-05       1.725283620892e-08       1.725303761560e-08       1.725303781449e-08       1.725303781335e-08       1.725282281789e-08       1.725302985591e-08 
       1.089477881860e-05       1.779072606945e-08       1.779094012688e-08       1.779094033769e-08       1.779094033648e-08       1.779071183458e-08       1.779093187928e-08 
       1.106331006970e-05       1.834538545498e-08       1.834561296106e-08       1.834561318452e-08       1.834561318324e-08       1.834537032297e-08       1.834560419477e-08 
       1.123444832946e-05       1.891733716732e-08       1.891757897038e-08       1.891757920727e-08       1.891757920591e-08       1.891732108150e-08       1.891756965266e-08 
       1.140823392565e-05       1.950712030617e-08       1.950737730814e-08       1.950737755929e-08       1.950737755784e-08       1.950710320626e-08       1.950736740418e-08 
       1.158470780992e-05       2.011529077709e-08       2.011556393693e-08       2.011556420322e-08       2.011556420167e-08       2.011527259902e-08       2.011555340973e-08 
       1.176391156738e-05       2.074242181540e-08       2.074271215267e-08       2.074271243503e-08       2.074271243339e-08       2.074240249104e-08       2.074270096288e-08 
       1.194588742640e-05       2.138910452632e-08       2.138941312504e-08       2.138941342447e-08       2.138941342273e-08       2.138908398324e-08       2.138940123084e-08 
       1.213067826860e-05       2.205594844202e-08       2.205627645473e-08       2.205627677229e-08       2.205627677043e-08       2.205592660319e-08       2.205626381164e-08 
       1.231832763895e-05       2.274358209593e-08       2.274393074805e-08       2.274393108485e-08       2.274393108288e-08       2.274355887945e-08       2.274391730877e-08 
       1.250887975598e-05       2.345265361481e-08       2.345302420940e-08       2.345302456664e-08       2.345302456454e-08       2.345262893362e-08       2.345300992365e-08 
       1.270237952227e-05       2.418383133006e-08       2.418422525272e-08       2.418422563167e-08       2.418422562944e-08       2.418380509158e-08       2.418421006704e-08 
       1.289887253498e-05       2.493780440938e-08       2.493822313141e-08       2.493822353340e-08       2.493822353103e-08       2.493777651516e-08       2.493820698899e-08 
       1.309840509662e-05       2.571528349729e-08       2.571572858572e-08       2.571572901219e-08       2.571572900967e-08       2.571525384266e-08       2.571571142610e-08 
       1.330102422595e-05       2.651700139740e-08       2.651747451725e-08       2.651747496973e-08       2.651747496704e-08       2.651696987108e-08       2.651745627618e-08 
       1.350677766905e-05       2.734371375495e-08       2.734421667652e-08       2.734421715661e-08       2.734421715376e-08       2.734368023859e-08       2.734419728567e-08 
       1.371571391061e-05       2.819619977060e-08       2.819673437618e-08       2.819673488560e-08       2.819673488257e-08       2.819616413840e-08       2.819671376290e-08 
       1.392788218531e-05       2.907526293474e-08       2.907583122562e-08       2.907583176619e-08       2.907583176297e-08       2.907522505290e-08       2.907580931268e-08 
       1.414333248944e-05       2.998173178440e-08       2.998233588848e-08       2.998233646215e-08       2.998233645872e-08       2.998169151069e-08       2.998231259375e-08 
       1.436211559270e-05       3.091646068401e-08       3.091710286375e-08       3.091710347257e-08       3.091710346893e-08       3.091641786717e-08       3.091707809991e-08 
       1.458428305012e-05       3.188033063028e-08       3.188101329127e-08       3.188101393743e-08       3.188101393356e-08       3.188028510949e-08       3.188098696547e-08 
       1.480988721427e-05       3.287425008229e-08       3.287497578226e-08       3.287497646809e-08       3.287497646397e-08       3.287420168656e-08       3.287494779579e-08 
       1.503898124752e-05       3.389915581736e-08       3.389992727584e-08       3.389992800381e-08       3.389992799943e-08       3.389910436487e-08       3.389989752373e-08 
       1.527161913464e-05       3.495601381364e-08       3.495683392218e-08       3.495683469493e-08       3.495683469027e-08       3.495595911107e-08       3.495680229284e-08 
       1.550785569548e-05       3.604582016016e-08       3.604669199325e-08       3.604669281357e-08       3.604669280861e-08       3.604576200196e-08       3.604665836800e-08 
       1.574774659788e-05       3.716960200328e-08       3.717052882491e-08       3.717052969576e-08       3.717052969048e-08       3.716954017088e-08       3.717049307777e-08 
       1.599134837084e-05       3.832841848995e-08       3.832940377325e-08       3.832940469786e-08       3.832940469225e-08       3.832835275052e-08       3.832936577021e-08 
       1.623871841779e-05       3.952336180887e-08       3.952440923704e-08       3.952441021857e-08       3.952441021261e-08       3.952329191650e-08       3.952436883581e-08 
       1.648991503011e-05       4.075555811848e-08       4.075667164738e-08       4.075667268942e-08       4.075667268308e-08       4.075548381048e-08       4.075662869529e-08 
       1.674499740094e-05       4.202616882772e-08       4.202735259755e-08       4.202735370386e-08       4.202735369712e-08       4.202608982483e-08       4.202730693477e-08 
       1.700402563902e-05       4.333639134280e-08       4.333764983612e-08       4.333765101072e-08       4.333765100355e-08       4.333630734797e-08       4.333760128963e-08 
       1.726706078297e-05       4.468746057628e-08       4.468879857893e-08       4.468879978732e-08       4.468879977970e-08       4.468737138782e-08       4.468874693465e-08 
       1.753416481556e-05       4.608064991940e-08       4.608207226033e-08       4.608207358432e-08       4.608207357621e-08       4.608055497429e-08       4.608201739032e-08 
       1.780540067841e-05       4.751727227035e-08       4.751878439663e-08       4.751878580338e-08       4.751878579477e-08       4.751717132196e-08       4.751872606215e-08 
       1.808083228677e-05       4.899868166059e-08       4.900028923203e-08       4.900029072470e-08       4.900029071554e-08       4.899857433604e-08       4.900022721310e-08 
       1.836052454460e-05       5.052627418819e-08       5.052798325405e-08       5.052798484069e-08       5.052798483095e-08       5.052616007509e-08       5.052791731912e-08 
       1.864454335985e-05       5.210148955030e-08       5.210330652873e-08       5.210330821286e-08       5.210330820250e-08       5.210136822637e-08       5.210323642834e-08 
       1.893295566000e-05       5.372581226940e-08       5.372774398791e-08       5.372774577657e-08       5.372774576556e-08       5.372568327582e-08       5.372766945916e-08 
       1.922582940784e-05       5.540077314074e-08       5.540282686915e-08       5.540282876800e-08       5.540282875629e-08       5.540063599597e-08       5.540274763077e-08 
       1.952323361747e-05       5.712795079736e-08       5.713013418635e-08       5.713013620039e-08       5.713013618794e-08       5.712780499119e-08       5.713004994149e-08 
       1.982523837057e-05       5.890897284264e-08       5.891129410547e-08       5.891129624681e-08       5.891129623357e-08       5.890881781289e-08       5.891120454067e-08 
       2.013191483291e-05       6.074551772799e-08       6.074798559466e-08       6.074798787463e-08       6.074798786055e-08       6.074535287456e-08       6.074789037542e-08 
       2.044333527112e-05       6.263931631300e-08       6.264194003198e-08       6.264194244921e-08       6.264194243424e-08       6.263914105459e-08       6.264183879409e-08 
       2.075957306974e-05       6.459215357444e-08       6.459494272929e-08       6.459494529536e-08       6.459494527944e-08       6.459196724527e-08       6.459483510475e-08 
       2.108070274847e-05       6.660586926892e-08       6.660883451961e-08       6.660883724397e-08       6.660883722704e-08       6.660567116770e-08       6.660872009697e-08 
       2.140679997977e-05       6.868236111863e-08       6.868551376319e-08       6.868551665652e-08       6.868551663852e-08       6.868215049765e-08       6.868539210684e-08 
       2.173794160667e-05       7.082358921120e-08       7.082693874934e-08       7.082694180793e-08       7.082694178879e-08       7.082336535421e-08       7.082680948141e-08 
       2.207420566089e-05       7.303155756429e-08       7.303512487226e-08       7.303512816870e-08       7.303512814835e-08       7.303131924134e-08       7.303498723277e-08 
       2.241567138123e-05       7.530836518094e-08       7.531215780325e-08       7.531216130359e-08       7.531216128195e-08       7.530811179766e-08       7.531201146674e-08 
       2.276241923221e-05       7.765615000292e-08       7.766018221437e-08       7.766018593201e-08       7.766018590900e-08       7.765588060246e-08       7.766002663019e-08 
       2.311453092307e-05       8.007712421269e-08       8.008141135323e-08       8.008141530264e-08       8.008141527817e-08       8.007683777553e-08       8.008124592983e-08 
       2.347208942701e-05       8.257357844023e-08       8.257812964732e-08       8.257813378888e-08       8.257813376286e-08       8.257327425211e-08       8.257795399182e-08 
       2.383517900075e-05       8.514784715580e-08       8.515268646342e-08       8.515269087059e-08       8.515269084292e-08       8.514752369265e-08       8.515249969104e-08 
       2.420388520435e-05       8.780236498245e-08       8.780751067252e-08       8.780751535825e-08       8.780751532884e-08       8.780202104046e-08       8.780731207498e-08 
       2.457829492143e-05       9.053963305808e-08       9.054510472248e-08       9.054510970366e-08       9.054510967238e-08       9.053926734110e-08       9.054489354308e-08 
       2.495849637959e-05       9.336222300246e-08       9.336804740053e-08       9.336805274459e-08       9.336805271133e-08       9.336183379413e-08       9.336782264229e-08 
       2.534457917122e-05       9.627281128691e-08       9.627900349662e-08       9.627900917215e-08       9.627900913678e-08       9.627239747806e-08       9.627876453968e-08 
       2.573663427464e-05       9.927413091028e-08       9.928071476285e-08       9.928072079382e-08       9.928072075621e-08       9.927369092250e-08       9.928046068950e-08 
       2.613475407549e-05       1.023690111476e-07       1.023760109829e-07       1.023760173903e-07       1.023760173503e-07       1.023685433294e-07       1.023757408524e-07 
       2.653903238852e-05       1.055603666491e-07       1.055678095116e-07       1.055678163227e-07       1.055678162802e-07       1.055598692216e-07       1.055675222828e-07 
       2.694956447972e-05       1.088512067534e-07       1.088591195496e-07       1.088591267845e-07       1.088591267393e-07       1.088506778741e-07       1.088588141798e-07 
       2.736644708873e-05       1.122446289036e-07       1.122530428149e-07       1.122530505067e-07       1.122530504586e-07       1.122440665385e-07       1.122527181051e-07 
       2.778977845167e-05       1.157438375587e-07       1.157527801315e-07       1.157527882917e-07       1.157527882405e-07       1.157432397099e-07       1.157524350053e-07 
       2.821965832426e-05       1.193521184864e-07       1.193616278229e-07       1.193616365302e-07       1.193616364759e-07       1.193514826776e-07       1.193612608462e-07 
       2.865618800534e-05       1.230728875907e-07       1.230829915030e-07       1.230830006794e-07       1.230830006216e-07       1.230722120274e-07       1.230826015203e-07 
       2.909947036075e-05       1.269096358804e-07       1.269203756162e-07       1.269203853439e-07       1.269203852824e-07       1.269089176837e-07       1.269199610695e-07 
       2.954960984757e-05       1.308659770488e-07       1.308773970833e-07       1.308774074257e-07       1.308774073603e-07       1.308652133734e-07       1.308769562766e-07 
       3.000671253870e-05       1.349456261836e-07       1.349577830961e-07       1.349577941818e-07       1.349577941123e-07       1.349448135331e-07       1.349573139122e-07 
       3.047088614791e-05       1.391524635639e-07       1.391653882584e-07       1.391654000354e-07       1.391653999615e-07       1.391515995175e-07       1.391648894345e-07 
       3.094224005516e-05       1.434904382127e-07       1.435041755162e-07       1.435041880085e-07       1.435041879299e-07       1.434895196434e-07       1.435036453066e-07 
       3.142088533243e-05       1.479636191145e-07       1.479782306223e-07       1.479782439239e-07       1.479782438403e-07       1.479626422706e-07       1.479776666860e-07 
       3.190693476988e-05       1.525762433100e-07       1.525917761699e-07       1.525917902970e-07       1.525917902081e-07       1.525752047211e-07       1.525911766606e-07 
       3.240050290240e-05       1.573326459176e-07       1.573491586062e-07       1.573491735917e-07       1.573491734972e-07       1.573315418014e-07       1.573485212527e-07 
       3.290170603662e-05       1.622373043743e-07       1.622548616146e-07       1.622548775406e-07       1.622548774402e-07       1.622361303993e-07       1.622541839375e-07 
       3.341066227834e-05       1.672948425683e-07       1.673135102045e-07       1.673135271289e-07       1.673135270221e-07       1.672935943188e-07       1.673127896607e-07 
       3.392749156031e-05       1.725100243323e-07       1.725298726650e-07       1.725298906511e-07       1.725298905375e-07       1.725086971056e-07       1.725291065405e-07 
       3.445231567053e-05       1.778877622186e-07       1.779088660138e-07       1.779088851288e-07       1.779088850081e-07       1.778863510129e-07       1.779080514223e-07 
       3.498525828094e-05       1.834331219323e-07       1.834555606041e-07       1.834555809194e-07       1.834555807910e-07       1.834316214305e-07       1.834546944797e-07 
       3.552644497655e-05       1.891513270603e-07       1.891751848771e-07       1.891752064677e-07       1.891752063312e-07       1.891497316155e-07       1.891742639659e-07 
       3.607600328507e-05       1.950477632650e-07       1.950731301378e-07       1.950731530846e-07       1.950731529394e-07       1.950460668631e-07       1.950721509687e-07 
       3.663406270690e-05       2.011279820222e-07       2.011549553418e-07       2.011549797391e-07       2.011549795847e-07       2.011261782183e-07       2.011539141617e-07 
       3.720075474571e-05       2.073977133496e-07       2.074263940417e-07       2.074264199791e-07       2.074264198149e-07       2.073957953524e-07       2.074252869528e-07 
       3.777621293938e-05       2.138628624137e-07       2.138933577852e-07       2.138933853562e-07       2.138933851816e-07       2.138608230205e-07       2.138921806421e-07 
       3.836057289149e-05       2.205295175481e-07       2.205619422511e-07       2.205619715553e-07       2.205619713697e-07       2.205273490963e-07       2.205606906250e-07 
       3.895397230327e-05       2.274039575035e-07       2.274384333592e-07       2.274384645069e-07       2.274384643095e-07       2.274016518197e-07       2.274371025473e-07 
       3.955655100607e-05       2.344926555648e-07       2.345293127596e-07       2.345293458677e-07       2.345293456578e-07       2.344902039576e-07       2.345278977363e-07 
       4.016845099426e-05       2.418022865661e-07       2.418412641878e-07       2.418412993838e-07       2.418412991606e-07       2.417996797749e-07       2.418397595862e-07 
       4.078981645874e-05       2.493397363835e-07       2.493811804748e-07       2.493812178879e-07       2.493812176507e-07       2.493369646000e-07       2.493795806547e-07 
       4.142079382089e-05       2.571121018505e-07       2.571561685699e-07       2.571562083410e-07       2.571562080887e-07       2.571091546256e-07       2.571544675031e-07 
       4.206153176708e-05       2.651267007705e-07       2.651735569781e-07       2.651735992604e-07       2.651735989921e-07       2.651235669754e-07       2.651717482260e-07 
       4.271218128370e-05       2.733910823892e-07       2.734409035223e-07       2.734409484682e-07       2.734409481829e-07       2.733877502456e-07       2.734389803072e-07 
       4.337289569278e-05       2.819130268901e-07       2.819660006992e-07       2.819660484778e-07       2.819660481744e-07       2.819094838412e-07       2.819639557733e-07 
       4.404383068805e-05       2.907005576849e-07       2.907568841876e-07       2.907569349791e-07       2.907569346566e-07       2.906967903685e-07       2.907547098298e-07 
       4.472514437169e-05       2.997619511100e-07       2.998218409469e-07       2.998218949207e-07       2.998218945778e-07       2.997579454137e-07       2.998195290090e-07 
       4.541699729155e-05       3.091057342926e-07       3.091694145932e-07       3.091694719861e-07       3.091694716215e-07       3.091014749922e-07       3.091669563325e-07 
       4.611955247898e-05       3.187407067831e-07       3.188084164407e-07       3.188084777296e-07       3.188084773418e-07       3.187361771135e-07       3.188058028330e-07 
       4.683297548730e-05       3.286759369966e-07       3.287479331085e-07       3.287479979736e-07       3.287479975613e-07       3.286711213912e-07       3.287451538115e-07 
       4.755743443073e-05       3.389207477398e-07       3.389973253198e-07       3.389973944733e-07       3.389973940348e-07       3.389156260060e-07       3.389943692967e-07 
       4.829310002407e-05       3.494848444807e-07       3.495662686535e-07       3.495663421548e-07       3.495663416886e-07       3.494793986008e-07       3.495631255206e-07 
       4.904014562292e-05       3.603781404386e-07       3.604647183331e-07       3.604647964677e-07       3.604647959720e-07       3.603723498560e-07       3.604613762411e-07 
       4.979874726447e-05       3.716108897619e-07       3.717029473784e-07       3.717030304440e-07       3.717030299169e-07       3.716047326351e-07       3.716993937452e-07 
       5.056908370909e-05       3.831936642565e-07       3.832915487266e-07       3.832916370399e-07       3.832916364794e-07       3.831871173610e-07       3.832877701547e-07 
       5.135133648233e-05       3.951373652052e-07       3.952414457138e-07       3.952415396026e-07       3.952415390066e-07       3.951304038775e-07       3.952374279481e-07 
       5.214568991780e-05       4.074532333251e-07       4.075639022646e-07       4.075640020776e-07       4.075640014438e-07       4.074458313432e-07       4.075596301539e-07 
       5.295233120056e-05       4.201528576705e-07       4.202705331327e-07       4.202706392600e-07       4.202706385861e-07       4.201449870736e-07       4.202659905481e-07 
       5.377145041121e-05       4.332481906247e-07       4.333733158651e-07       4.333734286936e-07       4.333734279770e-07       4.332398217808e-07       4.333684856856e-07 
