# Transfer functions T_i(k) for adiabatic (AD) mode (normalized to initial curvature=1) at redshift z=99
# for k=1.00899e-05 to 288.436 h/Mpc,
# number of wavenumbers equal to 1038
# t_i   stands for theta_i(k,z) with above normalization 
# t_tot stands for (sum_i [rho_i+p_i] theta_i)/(sum_i [rho_i+p_i]))(k,z)
#
#    1:k (h/Mpc)              2:t_g                    3:t_b                    4:t_cdm                  5:t_dmeff                6:t_ur                   7:t_tot              
       1.008985870272e-05       1.525905922894e-08       1.525921710533e-08       1.525921726306e-08       1.525921726216e-08       1.525904874081e-08       1.525921102435e-08 
       1.024593865065e-05       1.573478998381e-08       1.573495776628e-08       1.573495793340e-08       1.573495793245e-08       1.573477883519e-08       1.573495130330e-08 
       1.040443299810e-05       1.622535240252e-08       1.622553071554e-08       1.622553089262e-08       1.622553089160e-08       1.622534055170e-08       1.622552384646e-08 
       1.056537909342e-05       1.673120887538e-08       1.673139838285e-08       1.673139857052e-08       1.673139856944e-08       1.673119627802e-08       1.673139108206e-08 
       1.072881486267e-05       1.725283620747e-08       1.725303761526e-08       1.725303781415e-08       1.725303781300e-08       1.725282281640e-08       1.725302985552e-08 
       1.089477881860e-05       1.779072606795e-08       1.779094012653e-08       1.779094033734e-08       1.779094033612e-08       1.779071183305e-08       1.779093187888e-08 
       1.106331006970e-05       1.834538545343e-08       1.834561296070e-08       1.834561318416e-08       1.834561318287e-08       1.834537032139e-08       1.834560419435e-08 
       1.123444832946e-05       1.891733716573e-08       1.891757897001e-08       1.891757920690e-08       1.891757920552e-08       1.891732107986e-08       1.891756965223e-08 
       1.140823392565e-05       1.950712030453e-08       1.950737730776e-08       1.950737755891e-08       1.950737755745e-08       1.950710320457e-08       1.950736740374e-08 
       1.158470780992e-05       2.011529077539e-08       2.011556393653e-08       2.011556420282e-08       2.011556420127e-08       2.011527259728e-08       2.011555340927e-08 
       1.176391156738e-05       2.074242181365e-08       2.074271215226e-08       2.074271243463e-08       2.074271243297e-08       2.074240248925e-08       2.074270096241e-08 
       1.194588742640e-05       2.138910452452e-08       2.138941312462e-08       2.138941342406e-08       2.138941342230e-08       2.138908398139e-08       2.138940123036e-08 
       1.213067826860e-05       2.205594844016e-08       2.205627645430e-08       2.205627677186e-08       2.205627676999e-08       2.205592660128e-08       2.205626381114e-08 
       1.231832763895e-05       2.274358209401e-08       2.274393074760e-08       2.274393108441e-08       2.274393108242e-08       2.274355887749e-08       2.274391730826e-08 
       1.250887975598e-05       2.345265361283e-08       2.345302420893e-08       2.345302456618e-08       2.345302456407e-08       2.345262893160e-08       2.345300992312e-08 
       1.270237952227e-05       2.418383132802e-08       2.418422525225e-08       2.418422563120e-08       2.418422562895e-08       2.418380508949e-08       2.418421006649e-08 
       1.289887253498e-05       2.493780440728e-08       2.493822313091e-08       2.493822353291e-08       2.493822353052e-08       2.493777651301e-08       2.493820698843e-08 
       1.309840509662e-05       2.571528349512e-08       2.571572858521e-08       2.571572901169e-08       2.571572900915e-08       2.571525384044e-08       2.571571142552e-08 
       1.330102422595e-05       2.651700139517e-08       2.651747451673e-08       2.651747496921e-08       2.651747496651e-08       2.651696986879e-08       2.651745627558e-08 
       1.350677766905e-05       2.734371375264e-08       2.734421667598e-08       2.734421715608e-08       2.734421715321e-08       2.734368023623e-08       2.734419728505e-08 
       1.371571391061e-05       2.819619976823e-08       2.819673437562e-08       2.819673488505e-08       2.819673488200e-08       2.819616413597e-08       2.819671376227e-08 
       1.392788218531e-05       2.907526293228e-08       2.907583122505e-08       2.907583176563e-08       2.907583176238e-08       2.907522505039e-08       2.907580931202e-08 
       1.414333248944e-05       2.998173178187e-08       2.998233588789e-08       2.998233646156e-08       2.998233645811e-08       2.998169150810e-08       2.998231259307e-08 
       1.436211559270e-05       3.091646068140e-08       3.091710286314e-08       3.091710347197e-08       3.091710346830e-08       3.091641786450e-08       3.091707809921e-08 
       1.458428305012e-05       3.188033062759e-08       3.188101329064e-08       3.188101393681e-08       3.188101393291e-08       3.188028510674e-08       3.188098696475e-08 
       1.480988721427e-05       3.287425007952e-08       3.287497578161e-08       3.287497646745e-08       3.287497646331e-08       3.287420168372e-08       3.287494779504e-08 
       1.503898124752e-05       3.389915581450e-08       3.389992727517e-08       3.389992800315e-08       3.389992799875e-08       3.389910436195e-08       3.389989752296e-08 
       1.527161913464e-05       3.495601381069e-08       3.495683392149e-08       3.495683469425e-08       3.495683468957e-08       3.495595910805e-08       3.495680229205e-08 
       1.550785569548e-05       3.604582015713e-08       3.604669199254e-08       3.604669281287e-08       3.604669280788e-08       3.604576199884e-08       3.604665836719e-08 
       1.574774659788e-05       3.716960200015e-08       3.717052882418e-08       3.717052969503e-08       3.717052968973e-08       3.716954016767e-08       3.717049307693e-08 
       1.599134837084e-05       3.832841848671e-08       3.832940377249e-08       3.832940469711e-08       3.832940469148e-08       3.832835274721e-08       3.832936576935e-08 
       1.623871841779e-05       3.952336180554e-08       3.952440923626e-08       3.952441021780e-08       3.952441021181e-08       3.952329191309e-08       3.952436883492e-08 
       1.648991503011e-05       4.075555811505e-08       4.075667164658e-08       4.075667268862e-08       4.075667268226e-08       4.075548380696e-08       4.075662869437e-08 
       1.674499740094e-05       4.202616882418e-08       4.202735259672e-08       4.202735370304e-08       4.202735369627e-08       4.202608982120e-08       4.202730693382e-08 
       1.700402563902e-05       4.333639133915e-08       4.333764983527e-08       4.333765100987e-08       4.333765100268e-08       4.333630734423e-08       4.333760128865e-08 
       1.726706078297e-05       4.468746057251e-08       4.468879857805e-08       4.468879978645e-08       4.468879977880e-08       4.468737138397e-08       4.468874693364e-08 
       1.753416481556e-05       4.608064991552e-08       4.608207225941e-08       4.608207358342e-08       4.608207357528e-08       4.608055497032e-08       4.608201738928e-08 
       1.780540067841e-05       4.751727226634e-08       4.751878439569e-08       4.751878580246e-08       4.751878579381e-08       4.751717131786e-08       4.751872606107e-08 
       1.808083228677e-05       4.899868165646e-08       4.900028923106e-08       4.900029072374e-08       4.900029071455e-08       4.899857433181e-08       4.900022721199e-08 
       1.836052454460e-05       5.052627418393e-08       5.052798325305e-08       5.052798483971e-08       5.052798482993e-08       5.052616007073e-08       5.052791731798e-08 
       1.864454335985e-05       5.210148954591e-08       5.210330652770e-08       5.210330821185e-08       5.210330820145e-08       5.210136822188e-08       5.210323642716e-08 
       1.893295566000e-05       5.372581226487e-08       5.372774398685e-08       5.372774577553e-08       5.372774576448e-08       5.372568327119e-08       5.372766945795e-08 
       1.922582940784e-05       5.540077313607e-08       5.540282686806e-08       5.540282876692e-08       5.540282875517e-08       5.540063599119e-08       5.540274762952e-08 
       1.952323361747e-05       5.712795079255e-08       5.713013418522e-08       5.713013619928e-08       5.713013618678e-08       5.712780498625e-08       5.713004994020e-08 
       1.982523837057e-05       5.890897283767e-08       5.891129410431e-08       5.891129624567e-08       5.891129623239e-08       5.890881780780e-08       5.891120453934e-08 
       2.013191483291e-05       6.074551772268e-08       6.074798559344e-08       6.074798787340e-08       6.074798785928e-08       6.074535286918e-08       6.074789037401e-08 
       2.044333527112e-05       6.263931630772e-08       6.264194003074e-08       6.264194244799e-08       6.264194243298e-08       6.263914104918e-08       6.264183879267e-08 
       2.075957306974e-05       6.459215356900e-08       6.459494272801e-08       6.459494529410e-08       6.459494527814e-08       6.459196723970e-08       6.459483510329e-08 
       2.108070274847e-05       6.660586926331e-08       6.660883451830e-08       6.660883724267e-08       6.660883722570e-08       6.660567116195e-08       6.660872009547e-08 
       2.140679997977e-05       6.868236111285e-08       6.868551376183e-08       6.868551665518e-08       6.868551663713e-08       6.868215049172e-08       6.868539210529e-08 
       2.173794160667e-05       7.082358920524e-08       7.082693874794e-08       7.082694180655e-08       7.082694178736e-08       7.082336534810e-08       7.082680947981e-08 
       2.207420566089e-05       7.303155755814e-08       7.303512487082e-08       7.303512816727e-08       7.303512814687e-08       7.303131923503e-08       7.303498723112e-08 
       2.241567138123e-05       7.530836517459e-08       7.531215780176e-08       7.531216130212e-08       7.531216128043e-08       7.530811179116e-08       7.531201146504e-08 
       2.276241923221e-05       7.765614999638e-08       7.766018221283e-08       7.766018593050e-08       7.766018590744e-08       7.765588059575e-08       7.766002662844e-08 
       2.311453092307e-05       8.007712420594e-08       8.008141135164e-08       8.008141530108e-08       8.008141527655e-08       8.007683776861e-08       8.008124592802e-08 
       2.347208942701e-05       8.257357843328e-08       8.257812964569e-08       8.257813378727e-08       8.257813376120e-08       8.257327424498e-08       8.257795398996e-08 
       2.383517900075e-05       8.514784714863e-08       8.515268646174e-08       8.515269086893e-08       8.515269084121e-08       8.514752368530e-08       8.515249968911e-08 
       2.420388520435e-05       8.780236497505e-08       8.780751067079e-08       8.780751535654e-08       8.780751532707e-08       8.780202103288e-08       8.780731207300e-08 
       2.457829492143e-05       9.053963305046e-08       9.054510472069e-08       9.054510970190e-08       9.054510967055e-08       9.053926733329e-08       9.054489354103e-08 
       2.495849637959e-05       9.336222299460e-08       9.336804739868e-08       9.336805274277e-08       9.336805270945e-08       9.336183378607e-08       9.336782264018e-08 
       2.534457917122e-05       9.627281127879e-08       9.627900349472e-08       9.627900917027e-08       9.627900913484e-08       9.627239746975e-08       9.627876453751e-08 
       2.573663427464e-05       9.927413090191e-08       9.928071476088e-08       9.928072079188e-08       9.928072075421e-08       9.927369091393e-08       9.928046068726e-08 
       2.613475407549e-05       1.023690111390e-07       1.023760109809e-07       1.023760173883e-07       1.023760173483e-07       1.023685433206e-07       1.023757408501e-07 
       2.653903238852e-05       1.055603666402e-07       1.055678095095e-07       1.055678163206e-07       1.055678162780e-07       1.055598692125e-07       1.055675222804e-07 
       2.694956447972e-05       1.088512067442e-07       1.088591195475e-07       1.088591267824e-07       1.088591267371e-07       1.088506778647e-07       1.088588141773e-07 
       2.736644708873e-05       1.122446288941e-07       1.122530428127e-07       1.122530505045e-07       1.122530504563e-07       1.122440665288e-07       1.122527181026e-07 
       2.778977845167e-05       1.157438375490e-07       1.157527801292e-07       1.157527882894e-07       1.157527882382e-07       1.157432397000e-07       1.157524350027e-07 
       2.821965832426e-05       1.193521184764e-07       1.193616278205e-07       1.193616365279e-07       1.193616364735e-07       1.193514826673e-07       1.193612608435e-07 
       2.865618800534e-05       1.230728875803e-07       1.230829915006e-07       1.230830006770e-07       1.230830006191e-07       1.230722120168e-07       1.230826015175e-07 
       2.909947036075e-05       1.269096358697e-07       1.269203756137e-07       1.269203853414e-07       1.269203852798e-07       1.269089176728e-07       1.269199610667e-07 
       2.954960984757e-05       1.308659770378e-07       1.308773970808e-07       1.308774074231e-07       1.308774073577e-07       1.308652133621e-07       1.308769562736e-07 
       3.000671253870e-05       1.349456261723e-07       1.349577830935e-07       1.349577941791e-07       1.349577941096e-07       1.349448135214e-07       1.349573139092e-07 
       3.047088614791e-05       1.391524635522e-07       1.391653882556e-07       1.391654000327e-07       1.391653999587e-07       1.391515995055e-07       1.391648894314e-07 
       3.094224005516e-05       1.434904382006e-07       1.435041755133e-07       1.435041880057e-07       1.435041879270e-07       1.434895196310e-07       1.435036453034e-07 
       3.142088533243e-05       1.479636191020e-07       1.479782306194e-07       1.479782439210e-07       1.479782438374e-07       1.479626422579e-07       1.479776666826e-07 
       3.190693476988e-05       1.525762432971e-07       1.525917761668e-07       1.525917902940e-07       1.525917902051e-07       1.525752047080e-07       1.525911766572e-07 
       3.240050290240e-05       1.573326459043e-07       1.573491586031e-07       1.573491735886e-07       1.573491734941e-07       1.573315417878e-07       1.573485212492e-07 
       3.290170603662e-05       1.622373043606e-07       1.622548616114e-07       1.622548775374e-07       1.622548774369e-07       1.622361303853e-07       1.622541839339e-07 
       3.341066227834e-05       1.672948425542e-07       1.673135102012e-07       1.673135271257e-07       1.673135270187e-07       1.672935943044e-07       1.673127896569e-07 
       3.392749156031e-05       1.725100243177e-07       1.725298726616e-07       1.725298906477e-07       1.725298905340e-07       1.725086970907e-07       1.725291065366e-07 
       3.445231567053e-05       1.778877622036e-07       1.779088660103e-07       1.779088851254e-07       1.779088850045e-07       1.778863509975e-07       1.779080514183e-07 
       3.498525828094e-05       1.834331219168e-07       1.834555606005e-07       1.834555809158e-07       1.834555807873e-07       1.834316214147e-07       1.834546944756e-07 
       3.552644497655e-05       1.891513270444e-07       1.891751848733e-07       1.891752064640e-07       1.891752063274e-07       1.891497315992e-07       1.891742639616e-07 
       3.607600328507e-05       1.950477632485e-07       1.950731301339e-07       1.950731530808e-07       1.950731529354e-07       1.950460668463e-07       1.950721509643e-07 
       3.663406270690e-05       2.011279820052e-07       2.011549553378e-07       2.011549797351e-07       2.011549795806e-07       2.011261782009e-07       2.011539141572e-07 
       3.720075474571e-05       2.073977133321e-07       2.074263940376e-07       2.074264199750e-07       2.074264198108e-07       2.073957953345e-07       2.074252869481e-07 
       3.777621293938e-05       2.138628623957e-07       2.138933577809e-07       2.138933853520e-07       2.138933851773e-07       2.138608230020e-07       2.138921806373e-07 
       3.836057289149e-05       2.205295175295e-07       2.205619422467e-07       2.205619715510e-07       2.205619713653e-07       2.205273490772e-07       2.205606906200e-07 
       3.895397230327e-05       2.274039574843e-07       2.274384333547e-07       2.274384645024e-07       2.274384643049e-07       2.274016518001e-07       2.274371025422e-07 
       3.955655100607e-05       2.344926555450e-07       2.345293127549e-07       2.345293458631e-07       2.345293456531e-07       2.344902039373e-07       2.345278977310e-07 
       4.016845099426e-05       2.418022865457e-07       2.418412641831e-07       2.418412993791e-07       2.418412991558e-07       2.417996797541e-07       2.418397595808e-07 
       4.078981645874e-05       2.493397363625e-07       2.493811804698e-07       2.493812178831e-07       2.493812176456e-07       2.493369645785e-07       2.493795806491e-07 
       4.142079382089e-05       2.571121018288e-07       2.571561685648e-07       2.571562083360e-07       2.571562080835e-07       2.571091546034e-07       2.571544674973e-07 
       4.206153176708e-05       2.651267007482e-07       2.651735569729e-07       2.651735992552e-07       2.651735989868e-07       2.651235669526e-07       2.651717482201e-07 
       4.271218128370e-05       2.733910823662e-07       2.734409035169e-07       2.734409484629e-07       2.734409481774e-07       2.733877502220e-07       2.734389803011e-07 
       4.337289569278e-05       2.819130268663e-07       2.819660006936e-07       2.819660484723e-07       2.819660481688e-07       2.819094838169e-07       2.819639557669e-07 
       4.404383068805e-05       2.907005576604e-07       2.907568841818e-07       2.907569349735e-07       2.907569346507e-07       2.906967903434e-07       2.907547098232e-07 
       4.472514437169e-05       2.997619510848e-07       2.998218409410e-07       2.998218949149e-07       2.998218945717e-07       2.997579453878e-07       2.998195290022e-07 
       4.541699729155e-05       3.091057342666e-07       3.091694145871e-07       3.091694719801e-07       3.091694716152e-07       3.091014749655e-07       3.091669563255e-07 
       4.611955247898e-05       3.187407067562e-07       3.188084164343e-07       3.188084777233e-07       3.188084773353e-07       3.187361770860e-07       3.188058028258e-07 
       4.683297548730e-05       3.286759369689e-07       3.287479331020e-07       3.287479979672e-07       3.287479975546e-07       3.286711213629e-07       3.287451538041e-07 
       4.755743443073e-05       3.389207477113e-07       3.389973253131e-07       3.389973944667e-07       3.389973940280e-07       3.389156259768e-07       3.389943692890e-07 
       4.829310002407e-05       3.494848444513e-07       3.495662686466e-07       3.495663421480e-07       3.495663416815e-07       3.494793985707e-07       3.495631255127e-07 
       4.904014562292e-05       3.603781404082e-07       3.604647183259e-07       3.604647964607e-07       3.604647959647e-07       3.603723498249e-07       3.604613762330e-07 
       4.979874726447e-05       3.716108897306e-07       3.717029473710e-07       3.717030304368e-07       3.717030299094e-07       3.716047326030e-07       3.716993937368e-07 
       5.056908370909e-05       3.831936642242e-07       3.832915487191e-07       3.832916370324e-07       3.832916364716e-07       3.831871173279e-07       3.832877701461e-07 
       5.135133648233e-05       3.951373651719e-07       3.952414457060e-07       3.952415395949e-07       3.952415389986e-07       3.951304038434e-07       3.952374279392e-07 
       5.214568991780e-05       4.074532332908e-07       4.075639022565e-07       4.075640020696e-07       4.075640014356e-07       4.074458313080e-07       4.075596301447e-07 
       5.295233120056e-05       4.201528576351e-07       4.202705331244e-07       4.202706392518e-07       4.202706385777e-07       4.201449870374e-07       4.202659905386e-07 
       5.377145041121e-05       4.332481905882e-07       4.333733158565e-07       4.333734286851e-07       4.333734279683e-07       4.332398217434e-07       4.333684856758e-07 
