# Transfer functions T_i(k) for adiabatic (AD) mode (normalized to initial curvature=1) at redshift z=99
# for k=1.00899e-05 to 285.831 h/Mpc,
# number of wavenumbers equal to 587
# t_i   stands for theta_i(k,z) with above normalization 
# t_tot stands for (sum_i [rho_i+p_i] theta_i)/(sum_i [rho_i+p_i]))(k,z)
#
#    1:k (h/Mpc)              2:t_g                    3:t_b                    4:t_cdm                  5:t_dmeff                6:t_ur                   7:t_tot              
       1.008985870272e-05       1.525905923022e-08       1.525921710564e-08       1.525921726336e-08       1.525921726247e-08       1.525904874212e-08       1.525921102470e-08 
       1.038448789616e-05       1.616320532733e-08       1.616338228751e-08       1.616338246331e-08       1.616338246232e-08       1.616319356669e-08       1.616337547061e-08 
       1.068772041737e-05       1.712092422801e-08       1.712112259105e-08       1.712112278706e-08       1.712112278595e-08       1.712091103998e-08       1.712111494874e-08 
       1.099980748807e-05       1.813539017148e-08       1.813561253768e-08       1.813561275630e-08       1.813561275505e-08       1.813537538235e-08       1.813560396962e-08 
       1.132100766576e-05       1.920996546428e-08       1.921021475058e-08       1.921021499449e-08       1.921021499308e-08       1.920994887918e-08       1.921020514422e-08 
       1.165158705797e-05       2.034821162176e-08       2.034849110028e-08       2.034849137249e-08       2.034849137091e-08       2.034819302204e-08       2.034848032936e-08 
       1.199181954271e-05       2.155390116943e-08       2.155421451083e-08       2.155421481469e-08       2.155421481292e-08       2.155388030981e-08       2.155420243368e-08 
       1.234198699538e-05       2.283103014331e-08       2.283138146533e-08       2.283138180462e-08       2.283138180263e-08       2.283100674862e-08       2.283136792306e-08 
       1.270237952227e-05       2.418383133006e-08       2.418422525272e-08       2.418422563167e-08       2.418422562944e-08       2.418380509158e-08       2.418421006704e-08 
       1.307329570095e-05       2.561678829615e-08       2.561722999981e-08       2.561723042314e-08       2.561723042064e-08       2.561675886752e-08       2.561721297078e-08 
       1.345504282758e-05       2.713465023202e-08       2.713514553119e-08       2.713514600422e-08       2.713514600141e-08       2.713461722467e-08       2.713512643442e-08 
       1.384793717157e-05       2.874244770127e-08       2.874300311777e-08       2.874300364644e-08       2.874300364329e-08       2.874241067925e-08       2.874298170156e-08 
       1.425230423754e-05       3.044550929946e-08       3.044613214983e-08       3.044613274081e-08       3.044613273727e-08       3.044546777368e-08       3.044610813179e-08 
       1.466847903501e-05       3.224947931007e-08       3.225017780247e-08       3.225017846323e-08       3.225017845926e-08       3.224943273179e-08       3.225015086581e-08 
       1.509680635597e-05       3.416033640392e-08       3.416111974687e-08       3.416112048579e-08       3.416112048134e-08       3.416028415750e-08       3.416108953619e-08 
       1.553764106052e-05       3.618441344586e-08       3.618529197024e-08       3.618529279671e-08       3.618529279171e-08       3.618435484060e-08       3.618525808679e-08 
       1.599134837084e-05       3.832841848994e-08       3.832940377325e-08       3.832940469785e-08       3.832940469225e-08       3.832835275052e-08       3.832936577021e-08 
       1.645830417382e-05       4.059945694548e-08       4.060056199526e-08       4.060056302954e-08       4.060056302325e-08       4.059938320434e-08       4.060051937040e-08 
       1.693889533242e-05       4.300505521356e-08       4.300629459917e-08       4.300629575631e-08       4.300629574925e-08       4.300497249556e-08       4.300624679009e-08 
       1.743352000622e-05       4.555318553878e-08       4.555457559584e-08       4.555457689025e-08       4.555457688234e-08       4.555309275103e-08       4.555452197168e-08 
       1.794258798126e-05       4.825229233930e-08       4.825385145347e-08       4.825385290288e-08       4.825385289400e-08       4.825218825041e-08       4.825379130539e-08 
       1.846652100954e-05       5.111132040575e-08       5.111306916320e-08       5.111307078677e-08       5.111307077681e-08       5.111120363703e-08       5.111300169697e-08 
       1.900575315847e-05       5.413974435225e-08       5.414170585442e-08       5.414170767021e-08       5.414170765903e-08       5.413961336664e-08       5.414163017616e-08 
       1.956073117042e-05       5.734760000768e-08       5.734980017383e-08       5.734980220294e-08       5.734980219040e-08       5.734745308049e-08       5.734971528130e-08 
       2.013191483291e-05       6.074551772787e-08       6.074798559465e-08       6.074798787460e-08       6.074798786052e-08       6.074535287448e-08       6.074789037540e-08 
       2.071977735946e-05       6.434475768086e-08       6.434752576592e-08       6.434752831365e-08       6.434752829785e-08       6.434457276749e-08       6.434741895536e-08 
       2.132480578171e-05       6.815724676721e-08       6.816035157605e-08       6.816035442658e-08       6.816035440885e-08       6.815703934560e-08       6.816023176656e-08 
       2.194750135285e-05       7.219561346079e-08       7.219909982386e-08       7.219910304713e-08       7.219910302724e-08       7.219538055043e-08       7.219896530890e-08 
       2.258837996296e-05       7.647324875314e-08       7.647715933374e-08       7.647716294100e-08       7.647716291869e-08       7.647298748458e-08       7.647700844423e-08 
       2.324797256634e-05       8.100432216044e-08       8.100870897683e-08       8.100871301700e-08       8.100871299196e-08       8.100402905915e-08       8.100853970641e-08 
       2.392682562148e-05       8.580385682795e-08       8.580877099398e-08       8.580877547000e-08       8.580877544191e-08       8.580352835966e-08       8.580858133297e-08 
       2.462550154372e-05       9.088773759402e-08       9.089325140162e-08       9.089325642092e-08       9.089325638940e-08       9.088736906077e-08       9.089303859551e-08 
       2.534457917122e-05       9.627281128690e-08       9.627900349662e-08       9.627900917215e-08       9.627900913678e-08       9.627239747805e-08       9.627876453968e-08 
       2.608465424454e-05       1.019769357982e-07       1.019838821853e-07       1.019838885443e-07       1.019838885046e-07       1.019764715547e-07       1.019836141179e-07 
       2.684633990017e-05       1.080190027370e-07       1.080267949475e-07       1.080268020722e-07       1.080268020277e-07       1.080184819133e-07       1.080264942313e-07 
       2.763026717849e-05       1.144190327061e-07       1.144277718941e-07       1.144277798701e-07       1.144277798201e-07       1.144184484550e-07       1.144274346184e-07 
       2.843708554663e-05       1.211982323172e-07       1.212080300579e-07       1.212080389371e-07       1.212080388811e-07       1.211975772517e-07       1.212076518776e-07 
       2.926746343646e-05       1.283790458119e-07       1.283900395580e-07       1.283900495270e-07       1.283900494641e-07       1.283783107847e-07       1.283896152182e-07 
       3.012208879845e-05       1.359852617033e-07       1.359976053821e-07       1.359976166336e-07       1.359976165631e-07       1.359844365152e-07       1.359971289857e-07 
       3.100166967156e-05       1.440421061144e-07       1.440559495977e-07       1.440559621875e-07       1.440559621083e-07       1.440411804596e-07       1.440554152909e-07 
       3.190693476988e-05       1.525762433100e-07       1.525917761699e-07       1.525917902970e-07       1.525917902081e-07       1.525752047211e-07       1.525911766606e-07 
       3.283863408632e-05       1.616159575587e-07       1.616333807236e-07       1.616333965290e-07       1.616333964293e-07       1.616147925518e-07       1.616327082225e-07 
       3.379753951399e-05       1.711911837343e-07       1.712107300599e-07       1.712107477744e-07       1.712107476625e-07       1.711898767090e-07       1.712099755943e-07 
       3.478444548567e-05       1.813336407339e-07       1.813555692556e-07       1.813555891124e-07       1.813555889869e-07       1.813321743611e-07       1.813547228258e-07 
       3.580016963202e-05       1.920769229026e-07       1.921015238561e-07       1.921015461151e-07       1.921015459743e-07       1.920752777498e-07       1.921005742563e-07 
       3.684555345892e-05       2.034566096827e-07       2.034842109979e-07       2.034842359616e-07       2.034842358037e-07       2.034547638763e-07       2.034831455756e-07 
       3.792146304469e-05       2.155103939416e-07       2.155413599182e-07       2.155413879089e-07       2.155413877317e-07       2.155083230467e-07       2.155401646043e-07 
       3.902878975758e-05       2.282781925632e-07       2.283129338166e-07       2.283129652027e-07       2.283129650039e-07       2.282758691251e-07       2.283115927589e-07 
       4.016845099426e-05       2.418022865661e-07       2.418412641878e-07       2.418412993838e-07       2.418412991606e-07       2.417996797749e-07       2.418397595862e-07 
       4.134139093988e-05       2.561274612081e-07       2.561711912382e-07       2.561712307067e-07       2.561712304563e-07       2.561245365062e-07       2.561695031694e-07 
       4.254858135027e-05       2.713011479155e-07       2.713502111272e-07       2.713502553939e-07       2.713502551130e-07       2.712978664936e-07       2.713483171739e-07 
       4.379102235708e-05       2.873735904051e-07       2.874286355716e-07       2.874286852125e-07       2.874286848973e-07       2.873699088017e-07       2.874265106809e-07 
       4.506974329629e-05       3.043980004074e-07       3.044597562933e-07       3.044598119496e-07       3.044598115960e-07       3.043938698563e-07       3.044573723199e-07 
       4.638580356106e-05       3.224307350590e-07       3.225000219588e-07       3.225000843881e-07       3.225000839913e-07       3.224261006975e-07       3.224973472513e-07 
       4.774029347938e-05       3.415314581748e-07       3.416092203431e-07       3.416092903044e-07       3.416092898592e-07       3.415262580015e-07       3.416062183947e-07 
       4.913433521739e-05       3.617634567351e-07       3.618507012055e-07       3.618507799400e-07       3.618507794405e-07       3.617576215563e-07       3.618473333807e-07 
       5.056908370909e-05       3.831936642565e-07       3.832915487266e-07       3.832916370399e-07       3.832916364794e-07       3.831871173610e-07       3.832877701547e-07 
       5.204572761313e-05       4.058930038428e-07       4.060028271903e-07       4.060029262423e-07       4.060029256134e-07       4.058856584343e-07       4.059985877233e-07 
       5.356549029765e-05       4.299365924958e-07       4.300598120697e-07       4.300599231825e-07       4.300599224769e-07       4.299283511017e-07       4.300550554562e-07 
       5.512963085377e-05       4.554039871190e-07       4.555422386276e-07       4.555423632777e-07       4.555423624860e-07       4.553947404033e-07       4.555369017271e-07 
       5.673944513873e-05       4.823795057437e-07       4.825345799313e-07       4.825347194549e-07       4.825347185665e-07       4.823691331956e-07       4.825285933802e-07 
       5.839626684951e-05       5.109522857249e-07       5.111262764239e-07       5.111264329641e-07       5.111264319674e-07       5.109406478563e-07       5.111195596086e-07 
       6.010146862770e-05       5.412168908912e-07       5.414121044320e-07       5.414122800363e-07       5.414122789179e-07       5.412038334614e-07       5.414045682961e-07 
       6.185646319679e-05       5.732734159386e-07       5.734924425430e-07       5.734926395411e-07       5.734926382863e-07       5.732587657689e-07       5.734839870930e-07 
       6.366270453251e-05       6.072278059937e-07       6.074736027771e-07       6.074738241468e-07       6.074738227389e-07       6.072113662482e-07       6.074641141257e-07 
       6.552168906749e-05       6.431924644484e-07       6.434682414486e-07       6.434684897681e-07       6.434684881884e-07       6.431740195814e-07       6.434575954115e-07 
       6.743495693093e-05       6.812862271285e-07       6.815956428908e-07       6.815959214465e-07       6.815959196740e-07       6.812655325691e-07       6.815836982298e-07 
       6.940409322464e-05       7.216350189145e-07       7.219821757045e-07       7.219824881925e-07       7.219824862038e-07       7.216118002671e-07       7.219687740582e-07 
       7.143072933625e-05       7.643721844140e-07       7.647616923678e-07       7.647620429309e-07       7.647620406996e-07       7.643461337051e-07       7.647466557666e-07 
       7.351654429076e-05       8.096389652641e-07       8.100759820811e-07       8.100763753361e-07       8.100763728325e-07       8.096097373113e-07       8.100591113926e-07 
       7.566326614156e-05       8.575849042982e-07       8.580752266194e-07       8.580756682571e-07       8.580756654480e-07       8.575521101383e-07       8.580562984304e-07 
       7.787267340214e-05       9.083683795880e-07       9.089185124502e-07       9.089190073327e-07       9.089190041808e-07       9.083315874210e-07       9.088972748930e-07 
       8.014659651953e-05       9.621571073093e-07       9.627743455046e-07       9.627749006769e-07       9.627748971404e-07       9.621158279057e-07       9.627505173348e-07 
       8.248691939074e-05       1.019128687436e-06       1.019821217989e-06       1.019821840807e-06       1.019821836839e-06       1.019082373561e-06       1.019794483149e-06 
       8.489558092359e-05       1.079471187829e-06       1.080248196468e-06       1.080248895187e-06       1.080248890735e-06       1.079419225479e-06       1.080218200347e-06 
       8.737457664304e-05       1.143383755414e-06       1.144255548542e-06       1.144256332365e-06       1.144256327369e-06       1.143325455915e-06       1.144221893221e-06 
       8.992596034440e-05       1.211077265387e-06       1.212055406141e-06       1.212056285516e-06       1.212056279911e-06       1.211011855675e-06       1.212017645274e-06 
       9.255184579492e-05       1.282775001386e-06       1.283872466290e-06       1.283873453685e-06       1.283873447396e-06       1.282701612174e-06       1.283830099542e-06 
       9.525440848495e-05       1.358713397104e-06       1.359944745509e-06       1.359945852544e-06       1.359945845488e-06       1.358631059882e-06       1.359897209719e-06 
       9.803588743031e-05       1.439142808335e-06       1.440524356085e-06       1.440525598056e-06       1.440525590139e-06       1.439050430343e-06       1.440471021862e-06 
       1.008985870272e-04       1.524328256716e-06       1.525878338561e-06       1.525879731991e-06       1.525879723108e-06       1.524224613354e-06       1.525818498152e-06 
       1.038448789616e-04       1.614550395836e-06       1.616289564797e-06       1.616291128091e-06       1.616291118124e-06       1.614434113942e-06       1.616222424719e-06 
       1.068772041737e-04       1.710106498085e-06       1.712057694207e-06       1.712059447192e-06       1.712059436009e-06       1.709976043325e-06       1.711982368220e-06 
       1.099980748807e-04       1.811310825273e-06       1.813500032358e-06       1.813501999124e-06       1.813501986576e-06       1.811164463290e-06       1.813415518001e-06 
       1.132100766576e-04       1.918496503765e-06       1.920952777798e-06       1.920954984483e-06       1.920954970404e-06       1.918332294945e-06       1.920857953439e-06 
       1.165158705797e-04       2.032016138073e-06       2.034772031544e-06       2.034774507335e-06       2.034774491538e-06       2.031831907643e-06       2.034665640473e-06 
       1.199181954271e-04       2.152242911893e-06       2.155334969067e-06       2.155337746781e-06       2.155337729057e-06       2.152036219609e-06       2.155215600527e-06 
       1.234198699538e-04       2.279571878821e-06       2.283041110948e-06       2.283044227464e-06       2.283044207577e-06       2.279339986801e-06       2.282907181789e-06 
       1.270237952227e-04       2.414421233259e-06       2.418313647321e-06       2.418317143973e-06       2.418317121660e-06       2.414161070416e-06       2.418163381521e-06 
       1.307329570095e-04       2.557233632098e-06       2.561600836385e-06       2.561604759512e-06       2.561604734476e-06       2.556941753520e-06       2.561432241669e-06 
       1.345504282758e-04       2.708477559732e-06       2.713377477736e-06       2.713381879513e-06       2.713381851422e-06       2.708150100097e-06       2.713188318191e-06 
       1.384793717157e-04       2.868648838325e-06       2.874146490417e-06       2.874151429467e-06       2.874151397949e-06       2.868281460504e-06       2.873934256256e-06 
       1.425230423754e-04       3.038272369753e-06       3.044440615723e-06       3.044446157443e-06       3.044446122079e-06       3.037860211639e-06       3.044202494286e-06 
       1.466847903501e-04       3.217903580163e-06       3.224824132373e-06       3.224830349885e-06       3.224830310205e-06       3.217441189298e-06       3.224556969088e-06 
       1.509680635597e-04       3.408130010885e-06       3.415894688680e-06       3.415901664447e-06       3.415901619926e-06       3.407611267009e-06       3.415594939129e-06 
       1.553764106052e-04       3.609573630051e-06       3.618285386162e-06       3.618293211943e-06       3.618293161990e-06       3.608991671529e-06       3.617949075601e-06 
       1.599134837084e-04       3.822892537624e-06       3.832666812548e-06       3.832675594794e-06       3.832675538746e-06       3.822239659284e-06       3.832289486800e-06 
       1.645830417382e-04       4.048782841889e-06       4.059749243954e-06       4.059759096607e-06       4.059759033720e-06       4.048050414890e-06       4.059325898051e-06 
       1.693889533242e-04       4.287981213300e-06       4.300285046489e-06       4.300296103823e-06       4.300296033262e-06       4.287159542584e-06       4.299810074276e-06 
       1.743352000622e-04       4.541266759317e-06       4.555071117473e-06       4.555083523455e-06       4.555083444284e-06       4.540344988939e-06       4.554538221411e-06 
       1.794258798126e-04       4.809464100864e-06       4.824951642473e-06       4.824965555643e-06       4.824965466812e-06       4.808430071391e-06       4.824353767383e-06 
       1.846652100954e-04       5.093443943604e-06       5.110820439076e-06       5.110836050921e-06       5.110835951251e-06       5.092283955782e-06       5.110149647427e-06 
       1.900575315847e-04       5.394129724904e-06       5.413624841679e-06       5.413642359293e-06       5.413642247461e-06       5.392828469442e-06       5.412872268482e-06 
       1.956073117042e-04       5.712494817874e-06       5.734367570579e-06       5.734387226501e-06       5.734387101024e-06       5.711035085956e-06       5.733523218147e-06 
       2.013191483291e-04       6.049571564663e-06       6.074111384742e-06       6.074133440123e-06       6.074133299335e-06       6.047934088751e-06       6.073164081778e-06 
       2.071977735946e-04       6.406449941016e-06       6.433981652038e-06       6.434006387814e-06       6.434006229847e-06       6.404613145901e-06       6.432918852197e-06 
       2.132480578171e-04       6.784281533660e-06       6.815170135593e-06       6.815197895753e-06       6.815197718511e-06       6.782221123295e-06       6.813977762649e-06 
       2.194750135285e-04       7.184284874355e-06       7.218939506319e-06       7.218970653590e-06       7.218970454721e-06       7.181973682240e-06       7.217601764504e-06 
       2.258837996296e-04       7.607747362236e-06       7.646627040325e-06       7.646661975448e-06       7.646661752314e-06       7.605154939785e-06       7.645126203732e-06 
       2.324797256634e-04       8.056029674839e-06       8.099649125460e-06       8.099688339383e-06       8.099688089023e-06       8.053121767676e-06       8.097965348491e-06 
