# Transfer functions T_i(k) for adiabatic (AD) mode (normalized to initial curvature=1) at redshift z=99
# for k=1.00899e-05 to 285.831 h/Mpc,
# number of wavenumbers equal to 587
# t_i   stands for theta_i(k,z) with above normalization 
# t_tot stands for (sum_i [rho_i+p_i] theta_i)/(sum_i [rho_i+p_i]))(k,z)
#
#    1:k (h/Mpc)              2:t_g                    3:t_b                    4:t_cdm                  5:t_dmeff                6:t_ur                   7:t_tot              
       1.008985870272e-05       1.525905922556e-08       1.525921710454e-08       1.525921726228e-08       1.525921726135e-08       1.525904873734e-08       1.525921102345e-08 
       1.038448789616e-05       1.616320532239e-08       1.616338228635e-08       1.616338246217e-08       1.616338246114e-08       1.616319356163e-08       1.616337546929e-08 
       1.068772041737e-05       1.712092422278e-08       1.712112258982e-08       1.712112278585e-08       1.712112278469e-08       1.712091103462e-08       1.712111494733e-08 
       1.099980748807e-05       1.813539016593e-08       1.813561253638e-08       1.813561275502e-08       1.813561275372e-08       1.813537537668e-08       1.813560396814e-08 
       1.132100766576e-05       1.920996545841e-08       1.921021474920e-08       1.921021499313e-08       1.921021499167e-08       1.920994887316e-08       1.921020514264e-08 
       1.165158705797e-05       2.034821161554e-08       2.034849109882e-08       2.034849137105e-08       2.034849136942e-08       2.034819301567e-08       2.034848032769e-08 
       1.199181954271e-05       2.155390116284e-08       2.155421450928e-08       2.155421481317e-08       2.155421481134e-08       2.155388030306e-08       2.155420243192e-08 
       1.234198699538e-05       2.283103013633e-08       2.283138146369e-08       2.283138180300e-08       2.283138180096e-08       2.283100674147e-08       2.283136792119e-08 
       1.270237952227e-05       2.418383132267e-08       2.418422525099e-08       2.418422562996e-08       2.418422562767e-08       2.418380508400e-08       2.418421006505e-08 
       1.307329570095e-05       2.561678828832e-08       2.561722999797e-08       2.561723042133e-08       2.561723041877e-08       2.561675885950e-08       2.561721296868e-08 
       1.345504282758e-05       2.713465022372e-08       2.713514552925e-08       2.713514600230e-08       2.713514599943e-08       2.713461721617e-08       2.713512643220e-08 
       1.384793717157e-05       2.874244769248e-08       2.874300311571e-08       2.874300364441e-08       2.874300364119e-08       2.874241067025e-08       2.874298169920e-08 
       1.425230423754e-05       3.044550929015e-08       3.044613214764e-08       3.044613273866e-08       3.044613273504e-08       3.044546776414e-08       3.044610812930e-08 
       1.466847903501e-05       3.224947930021e-08       3.225017780016e-08       3.225017846095e-08       3.225017845690e-08       3.224943272169e-08       3.225015086317e-08 
       1.509680635597e-05       3.416033639347e-08       3.416111974442e-08       3.416112048338e-08       3.416112047884e-08       3.416028414680e-08       3.416108953339e-08 
       1.553764106052e-05       3.618441343479e-08       3.618529196765e-08       3.618529279415e-08       3.618529278907e-08       3.618435482927e-08       3.618525808383e-08 
       1.599134837084e-05       3.832841847822e-08       3.832940377050e-08       3.832940469514e-08       3.832940468944e-08       3.832835273852e-08       3.832936576707e-08 
       1.645830417382e-05       4.059945693307e-08       4.060056199235e-08       4.060056302667e-08       4.060056302028e-08       4.059938319163e-08       4.060051936707e-08 
       1.693889533242e-05       4.300505520042e-08       4.300629459609e-08       4.300629575327e-08       4.300629574610e-08       4.300497248209e-08       4.300624678656e-08 
       1.743352000622e-05       4.555318552485e-08       4.555457559257e-08       4.555457688703e-08       4.555457687900e-08       4.555309273676e-08       4.555452196795e-08 
       1.794258798126e-05       4.825229232455e-08       4.825385145000e-08       4.825385289947e-08       4.825385289047e-08       4.825218823529e-08       4.825379130144e-08 
       1.846652100954e-05       5.111132039012e-08       5.111306915953e-08       5.111307078316e-08       5.111307077307e-08       5.111120362103e-08       5.111300169278e-08 
       1.900575315847e-05       5.413974433570e-08       5.414170585053e-08       5.414170766638e-08       5.414170765507e-08       5.413961334968e-08       5.414163017172e-08 
       1.956073117042e-05       5.734759999015e-08       5.734980016972e-08       5.734980219889e-08       5.734980218620e-08       5.734745306253e-08       5.734971527660e-08 
       2.013191483291e-05       6.074551770928e-08       6.074798559028e-08       6.074798787030e-08       6.074798785607e-08       6.074535285542e-08       6.074789037041e-08 
       2.071977735946e-05       6.434475766119e-08       6.434752576130e-08       6.434752830910e-08       6.434752829314e-08       6.434457274734e-08       6.434741895009e-08 
       2.132480578171e-05       6.815724674638e-08       6.816035157116e-08       6.816035442176e-08       6.816035440387e-08       6.815703932426e-08       6.816023176098e-08 
       2.194750135285e-05       7.219561343872e-08       7.219909981868e-08       7.219910304203e-08       7.219910302196e-08       7.219538052782e-08       7.219896530299e-08 
       2.258837996296e-05       7.647324872977e-08       7.647715932825e-08       7.647716293560e-08       7.647716291309e-08       7.647298746064e-08       7.647700843797e-08 
       2.324797256634e-05       8.100432213568e-08       8.100870897102e-08       8.100871301127e-08       8.100871298603e-08       8.100402903378e-08       8.100853969977e-08 
       2.392682562148e-05       8.580385680172e-08       8.580877098783e-08       8.580877546394e-08       8.580877543563e-08       8.580352833279e-08       8.580858132594e-08 
       2.462550154372e-05       9.088773756623e-08       9.089325139510e-08       9.089325641449e-08       9.089325638275e-08       9.088736903230e-08       9.089303858806e-08 
       2.534457917122e-05       9.627281125747e-08       9.627900348971e-08       9.627900916534e-08       9.627900912974e-08       9.627239744790e-08       9.627876453179e-08 
       2.608465424454e-05       1.019769357671e-07       1.019838821780e-07       1.019838885371e-07       1.019838884971e-07       1.019764715227e-07       1.019836141095e-07 
       2.684633990017e-05       1.080190027039e-07       1.080267949398e-07       1.080268020646e-07       1.080268020198e-07       1.080184818795e-07       1.080264942224e-07 
       2.763026717849e-05       1.144190326711e-07       1.144277718859e-07       1.144277798620e-07       1.144277798118e-07       1.144184484192e-07       1.144274346090e-07 
       2.843708554663e-05       1.211982322801e-07       1.212080300492e-07       1.212080389286e-07       1.212080388722e-07       1.211975772138e-07       1.212076518677e-07 
       2.926746343646e-05       1.283790457727e-07       1.283900395488e-07       1.283900495179e-07       1.283900494547e-07       1.283783107445e-07       1.283896152077e-07 
       3.012208879845e-05       1.359852616618e-07       1.359976053723e-07       1.359976166240e-07       1.359976165531e-07       1.359844364726e-07       1.359971289746e-07 
       3.100166967156e-05       1.440421060704e-07       1.440559495873e-07       1.440559621773e-07       1.440559620978e-07       1.440411804145e-07       1.440554152791e-07 
       3.190693476988e-05       1.525762432633e-07       1.525917761589e-07       1.525917902862e-07       1.525917901970e-07       1.525752046733e-07       1.525911766481e-07 
       3.283863408632e-05       1.616159575093e-07       1.616333807120e-07       1.616333965176e-07       1.616333964175e-07       1.616147925011e-07       1.616327082092e-07 
       3.379753951399e-05       1.711911836820e-07       1.712107300476e-07       1.712107477623e-07       1.712107476500e-07       1.711898766554e-07       1.712099755803e-07 
       3.478444548567e-05       1.813336406785e-07       1.813555692426e-07       1.813555890996e-07       1.813555889736e-07       1.813321743043e-07       1.813547228109e-07 
       3.580016963202e-05       1.920769228439e-07       1.921015238424e-07       1.921015461015e-07       1.921015459602e-07       1.920752776897e-07       1.921005742406e-07 
       3.684555345892e-05       2.034566096205e-07       2.034842109833e-07       2.034842359473e-07       2.034842357888e-07       2.034547638125e-07       2.034831455589e-07 
       3.792146304469e-05       2.155103938757e-07       2.155413599028e-07       2.155413878937e-07       2.155413877159e-07       2.155083229792e-07       2.155401645866e-07 
       3.902878975758e-05       2.282781924934e-07       2.283129338002e-07       2.283129651866e-07       2.283129649872e-07       2.282758690536e-07       2.283115927402e-07 
       4.016845099426e-05       2.418022864921e-07       2.418412641705e-07       2.418412993667e-07       2.418412991429e-07       2.417996796992e-07       2.418397595664e-07 
       4.134139093988e-05       2.561274611298e-07       2.561711912198e-07       2.561712306886e-07       2.561712304376e-07       2.561245364260e-07       2.561695031484e-07 
       4.254858135027e-05       2.713011478326e-07       2.713502111077e-07       2.713502553747e-07       2.713502550932e-07       2.712978664086e-07       2.713483171516e-07 
       4.379102235708e-05       2.873735903172e-07       2.874286355510e-07       2.874286851921e-07       2.874286848762e-07       2.873699087117e-07       2.874265106574e-07 
       4.506974329629e-05       3.043980003144e-07       3.044597562715e-07       3.044598119281e-07       3.044598115737e-07       3.043938697609e-07       3.044573722949e-07 
       4.638580356106e-05       3.224307349605e-07       3.225000219357e-07       3.225000843653e-07       3.225000839677e-07       3.224261005966e-07       3.224973472249e-07 
       4.774029347938e-05       3.415314580703e-07       3.416092203186e-07       3.416092902803e-07       3.416092898342e-07       3.415262578945e-07       3.416062183667e-07 
       4.913433521739e-05       3.617634566245e-07       3.618507011796e-07       3.618507799145e-07       3.618507794140e-07       3.617576214430e-07       3.618473333511e-07 
       5.056908370909e-05       3.831936641393e-07       3.832915486991e-07       3.832916370128e-07       3.832916364513e-07       3.831871172410e-07       3.832877701233e-07 
       5.204572761313e-05       4.058930037187e-07       4.060028271612e-07       4.060029262136e-07       4.060029255837e-07       4.058856583071e-07       4.059985876900e-07 
       5.356549029765e-05       4.299365923644e-07       4.300598120388e-07       4.300599231521e-07       4.300599224454e-07       4.299283509670e-07       4.300550554210e-07 
       5.512963085377e-05       4.554039869798e-07       4.555422385949e-07       4.555423632455e-07       4.555423624526e-07       4.553947402607e-07       4.555369016898e-07 
       5.673944513873e-05       4.823795055962e-07       4.825345798967e-07       4.825347194207e-07       4.825347185312e-07       4.823691330445e-07       4.825285933407e-07 
       5.839626684951e-05       5.109522855687e-07       5.111262763872e-07       5.111264329280e-07       5.111264319300e-07       5.109406476962e-07       5.111195595668e-07 
       6.010146862770e-05       5.412168907257e-07       5.414121043931e-07       5.414122799980e-07       5.414122788783e-07       5.412038332919e-07       5.414045682517e-07 
       6.185646319679e-05       5.732734157633e-07       5.734924425018e-07       5.734926395006e-07       5.734926382444e-07       5.732587655894e-07       5.734839870460e-07 
       6.366270453251e-05       6.072278058080e-07       6.074736027336e-07       6.074738241039e-07       6.074738226945e-07       6.072113660580e-07       6.074641140760e-07 
       6.552168906749e-05       6.431924642517e-07       6.434682414025e-07       6.434684897226e-07       6.434684881413e-07       6.431740193799e-07       6.434575953587e-07 
       6.743495693093e-05       6.812862269202e-07       6.815956428419e-07       6.815959213983e-07       6.815959196242e-07       6.812655323557e-07       6.815836981740e-07 
       6.940409322464e-05       7.216350186939e-07       7.219821756527e-07       7.219824881414e-07       7.219824861510e-07       7.216118000410e-07       7.219687739990e-07 
       7.143072933625e-05       7.643721841803e-07       7.647616923130e-07       7.647620428769e-07       7.647620406436e-07       7.643461334657e-07       7.647466557039e-07 
       7.351654429076e-05       8.096389650166e-07       8.100759820230e-07       8.100763752788e-07       8.100763727732e-07       8.096097370577e-07       8.100591113263e-07 
       7.566326614156e-05       8.575849040362e-07       8.580752265579e-07       8.580756681965e-07       8.580756653853e-07       8.575521098699e-07       8.580562983602e-07 
       7.787267340214e-05       9.083683793102e-07       9.089185123850e-07       9.089190072684e-07       9.089190041143e-07       9.083315871364e-07       9.088972748185e-07 
       8.014659651953e-05       9.621571070151e-07       9.627743454355e-07       9.627749006088e-07       9.627748970700e-07       9.621158276043e-07       9.627505172559e-07 
       8.248691939074e-05       1.019128687124e-06       1.019821217916e-06       1.019821840735e-06       1.019821836765e-06       1.019082373242e-06       1.019794483065e-06 
       8.489558092359e-05       1.079471187499e-06       1.080248196390e-06       1.080248895111e-06       1.080248890656e-06       1.079419225141e-06       1.080218200258e-06 
       8.737457664304e-05       1.143383755065e-06       1.144255548460e-06       1.144256332284e-06       1.144256327286e-06       1.143325455557e-06       1.144221893127e-06 
       8.992596034440e-05       1.211077265017e-06       1.212055406054e-06       1.212056285430e-06       1.212056279822e-06       1.211011855296e-06       1.212017645175e-06 
       9.255184579492e-05       1.282775000994e-06       1.283872466198e-06       1.283873453594e-06       1.283873447302e-06       1.282701611773e-06       1.283830099437e-06 
       9.525440848495e-05       1.358713396688e-06       1.359944745411e-06       1.359945852448e-06       1.359945845388e-06       1.358631059456e-06       1.359897209608e-06 
       9.803588743031e-05       1.439142807895e-06       1.440524355981e-06       1.440525597955e-06       1.440525590034e-06       1.439050429892e-06       1.440471021744e-06 
       1.008985870272e-04       1.524328256250e-06       1.525878338451e-06       1.525879731883e-06       1.525879722996e-06       1.524224612876e-06       1.525818498027e-06 
       1.038448789616e-04       1.614550395343e-06       1.616289564681e-06       1.616291127977e-06       1.616291118006e-06       1.614434113436e-06       1.616222424587e-06 
       1.068772041737e-04       1.710106497562e-06       1.712057694085e-06       1.712059447071e-06       1.712059435884e-06       1.709976042790e-06       1.711982368079e-06 
       1.099980748807e-04       1.811310824719e-06       1.813500032228e-06       1.813501998996e-06       1.813501986443e-06       1.811164462722e-06       1.813415517852e-06 
       1.132100766576e-04       1.918496503178e-06       1.920952777661e-06       1.920954984347e-06       1.920954970263e-06       1.918332294344e-06       1.920857953282e-06 
       1.165158705797e-04       2.032016137451e-06       2.034772031398e-06       2.034774507191e-06       2.034774491389e-06       2.031831907006e-06       2.034665640306e-06 
       1.199181954271e-04       2.152242911234e-06       2.155334968913e-06       2.155337746629e-06       2.155337728899e-06       2.152036218934e-06       2.155215600350e-06 
       1.234198699538e-04       2.279571878124e-06       2.283041110785e-06       2.283044227303e-06       2.283044207410e-06       2.279339986087e-06       2.282907181602e-06 
       1.270237952227e-04       2.414421232520e-06       2.418313647148e-06       2.418317143802e-06       2.418317121483e-06       2.414161069659e-06       2.418163381322e-06 
       1.307329570095e-04       2.557233631316e-06       2.561600836202e-06       2.561604759331e-06       2.561604734289e-06       2.556941752719e-06       2.561432241459e-06 
       1.345504282758e-04       2.708477558904e-06       2.713377477542e-06       2.713381879321e-06       2.713381851223e-06       2.708150099248e-06       2.713188317969e-06 
       1.384793717157e-04       2.868648837447e-06       2.874146490211e-06       2.874151429264e-06       2.874151397739e-06       2.868281459605e-06       2.873934256021e-06 
       1.425230423754e-04       3.038272368824e-06       3.044440615505e-06       3.044446157228e-06       3.044446121856e-06       3.037860210687e-06       3.044202494037e-06 
       1.466847903501e-04       3.217903579179e-06       3.224824132142e-06       3.224830349657e-06       3.224830309969e-06       3.217441188290e-06       3.224556968823e-06 
       1.509680635597e-04       3.408130009842e-06       3.415894688435e-06       3.415901664205e-06       3.415901619676e-06       3.407611265941e-06       3.415594938849e-06 
       1.553764106052e-04       3.609573628947e-06       3.618285385902e-06       3.618293211687e-06       3.618293161725e-06       3.608991670398e-06       3.617949075305e-06 
       1.599134837084e-04       3.822892536455e-06       3.832666812272e-06       3.832675594523e-06       3.832675538465e-06       3.822239658085e-06       3.832289486485e-06 
       1.645830417382e-04       4.048782840649e-06       4.059749243663e-06       4.059759096320e-06       4.059759033423e-06       4.048050413620e-06       4.059325897718e-06 
       1.693889533242e-04       4.287981211987e-06       4.300285046181e-06       4.300296103519e-06       4.300296032947e-06       4.287159541239e-06       4.299810073924e-06 
       1.743352000622e-04       4.541266757926e-06       4.555071117146e-06       4.555083523133e-06       4.555083443951e-06       4.540344987516e-06       4.554538221038e-06 
       1.794258798126e-04       4.809464099392e-06       4.824951642127e-06       4.824965555302e-06       4.824965466459e-06       4.808430069883e-06       4.824353766988e-06 
       1.846652100954e-04       5.093443942043e-06       5.110820438710e-06       5.110836050560e-06       5.110835950877e-06       5.092283954186e-06       5.110149647009e-06 
       1.900575315847e-04       5.394129723252e-06       5.413624841290e-06       5.413642358911e-06       5.413642247065e-06       5.392828467750e-06       5.412872268038e-06 
       1.956073117042e-04       5.712494816124e-06       5.734367570167e-06       5.734387226096e-06       5.734387100604e-06       5.711035084164e-06       5.733523217677e-06 
       2.013191483291e-04       6.049571562810e-06       6.074111384306e-06       6.074133439694e-06       6.074133298891e-06       6.047934086853e-06       6.073164081281e-06 
       2.071977735946e-04       6.406449939054e-06       6.433981651576e-06       6.434006387359e-06       6.434006229376e-06       6.404613143891e-06       6.432918851670e-06 
       2.132480578171e-04       6.784281531582e-06       6.815170135104e-06       6.815197895271e-06       6.815197718013e-06       6.782221121166e-06       6.813977762091e-06 
       2.194750135285e-04       7.184284872154e-06       7.218939505801e-06       7.218970653079e-06       7.218970454193e-06       7.181973679985e-06       7.217601763912e-06 
       2.258837996296e-04       7.607747359906e-06       7.646627039774e-06       7.646661974907e-06       7.646661751754e-06       7.605154937394e-06       7.645126203105e-06 
       2.324797256634e-04       8.056029672370e-06       8.099649124878e-06       8.099688338811e-06       8.099688088431e-06       8.053121765147e-06       8.097965347827e-06 
