# Transfer functions T_i(k) for adiabatic (AD) mode (normalized to initial curvature=1) at redshift z=99
# for k=1.00899e-05 to 285.831 h/Mpc,
# number of wavenumbers equal to 587
# t_i   stands for theta_i(k,z) with above normalization 
# t_tot stands for (sum_i [rho_i+p_i] theta_i)/(sum_i [rho_i+p_i]))(k,z)
#
#    1:k (h/Mpc)              2:t_g                    3:t_b                    4:t_cdm                  5:t_dmeff                6:t_ur                   7:t_tot              
       1.008985870272e-05       1.525905917911e-08       1.525921709364e-08       1.525921725154e-08       1.525921725024e-08       1.525904868976e-08       1.525921101099e-08 
       1.038448789616e-05       1.616320527319e-08       1.616338227481e-08       1.616338245080e-08       1.616338244936e-08       1.616319351122e-08       1.616337545610e-08 
       1.068772041737e-05       1.712092417066e-08       1.712112257759e-08       1.712112277380e-08       1.712112277222e-08       1.712091098123e-08       1.712111493336e-08 
       1.099980748807e-05       1.813539011073e-08       1.813561252342e-08       1.813561274226e-08       1.813561274051e-08       1.813537532012e-08       1.813560395334e-08 
       1.132100766576e-05       1.920996539994e-08       1.921021473547e-08       1.921021497961e-08       1.921021497768e-08       1.920994881326e-08       1.921020512697e-08 
       1.165158705797e-05       2.034821155360e-08       2.034849108428e-08       2.034849135673e-08       2.034849135460e-08       2.034819295221e-08       2.034848031108e-08 
       1.199181954271e-05       2.155390109723e-08       2.155421449388e-08       2.155421479800e-08       2.155421479564e-08       2.155388023585e-08       2.155420241433e-08 
       1.234198699538e-05       2.283103006683e-08       2.283138144737e-08       2.283138178693e-08       2.283138178433e-08       2.283100667027e-08       2.283136790256e-08 
       1.270237952227e-05       2.418383124905e-08       2.418422523371e-08       2.418422561294e-08       2.418422561005e-08       2.418380500858e-08       2.418421004532e-08 
       1.307329570095e-05       2.561678821034e-08       2.561722997967e-08       2.561723040330e-08       2.561723040011e-08       2.561675877961e-08       2.561721294778e-08 
       1.345504282758e-05       2.713465014112e-08       2.713514550986e-08       2.713514598320e-08       2.713514597966e-08       2.713461713155e-08       2.713512641006e-08 
       1.384793717157e-05       2.874244760499e-08       2.874300309517e-08       2.874300362418e-08       2.874300362025e-08       2.874241058062e-08       2.874298167575e-08 
       1.425230423754e-05       3.044550919748e-08       3.044613212589e-08       3.044613271723e-08       3.044613271287e-08       3.044546766920e-08       3.044610810445e-08 
       1.466847903501e-05       3.224947920204e-08       3.225017777711e-08       3.225017843825e-08       3.225017843341e-08       3.224943262112e-08       3.225015083686e-08 
       1.509680635597e-05       3.416033628949e-08       3.416111972001e-08       3.416112045933e-08       3.416112045396e-08       3.416028404027e-08       3.416108950551e-08 
       1.553764106052e-05       3.618441332465e-08       3.618529194179e-08       3.618529276868e-08       3.618529276271e-08       3.618435471643e-08       3.618525805430e-08 
       1.599134837084e-05       3.832841836155e-08       3.832940374311e-08       3.832940466817e-08       3.832940466153e-08       3.832835261899e-08       3.832936573580e-08 
       1.645830417382e-05       4.059945680948e-08       4.060056196334e-08       4.060056299809e-08       4.060056299071e-08       4.059938306502e-08       4.060051933394e-08 
       1.693889533242e-05       4.300505506951e-08       4.300629456536e-08       4.300629572300e-08       4.300629571478e-08       4.300497234798e-08       4.300624675147e-08 
       1.743352000622e-05       4.555318538618e-08       4.555457556002e-08       4.555457685497e-08       4.555457684582e-08       4.555309259470e-08       4.555452193078e-08 
       1.794258798126e-05       4.825229217766e-08       4.825385141552e-08       4.825385286551e-08       4.825385285532e-08       4.825218808482e-08       4.825379126206e-08 
       1.846652100954e-05       5.111132023454e-08       5.111306912301e-08       5.111307074718e-08       5.111307073584e-08       5.111120346163e-08       5.111300165108e-08 
       1.900575315847e-05       5.413974417090e-08       5.414170581185e-08       5.414170762828e-08       5.414170761563e-08       5.413961318084e-08       5.414163012754e-08 
       1.956073117042e-05       5.734759981558e-08       5.734980012874e-08       5.734980215853e-08       5.734980214443e-08       5.734745288368e-08       5.734971522980e-08 
       2.013191483291e-05       6.074551752434e-08       6.074798554688e-08       6.074798782754e-08       6.074798781182e-08       6.074535266598e-08       6.074789032084e-08 
       2.071977735946e-05       6.434475746532e-08       6.434752571532e-08       6.434752826381e-08       6.434752824627e-08       6.434457254668e-08       6.434741889758e-08 
       2.132480578171e-05       6.815724653890e-08       6.816035152246e-08       6.816035437379e-08       6.816035435422e-08       6.815703911170e-08       6.816023170536e-08 
       2.194750135285e-05       7.219561321895e-08       7.219909976710e-08       7.219910299121e-08       7.219910296937e-08       7.219538030268e-08       7.219896524407e-08 
       2.258837996296e-05       7.647324849698e-08       7.647715927361e-08       7.647716288177e-08       7.647716285739e-08       7.647298722215e-08       7.647700837556e-08 
       2.324797256634e-05       8.100432188909e-08       8.100870891313e-08       8.100871295425e-08       8.100871292702e-08       8.100402878117e-08       8.100853963367e-08 
       2.392682562148e-05       8.580385654052e-08       8.580877092651e-08       8.580877540354e-08       8.580877537313e-08       8.580352806521e-08       8.580858125592e-08 
       2.462550154372e-05       9.088773728956e-08       9.089325133015e-08       9.089325635052e-08       9.089325631654e-08       9.088736874886e-08       9.089303851389e-08 
       2.534457917122e-05       9.627281096441e-08       9.627900342092e-08       9.627900909757e-08       9.627900905961e-08       9.627239714767e-08       9.627876445323e-08 
       2.608465424454e-05       1.019769354566e-07       1.019838821051e-07       1.019838884653e-07       1.019838884228e-07       1.019764712047e-07       1.019836140263e-07 
       2.684633990017e-05       1.080190023751e-07       1.080267948626e-07       1.080268019886e-07       1.080268019411e-07       1.080184815426e-07       1.080264941343e-07 
       2.763026717849e-05       1.144190323228e-07       1.144277718042e-07       1.144277797815e-07       1.144277797284e-07       1.144184480623e-07       1.144274345157e-07 
       2.843708554663e-05       1.211982319112e-07       1.212080299626e-07       1.212080388433e-07       1.212080387839e-07       1.211975768358e-07       1.212076517688e-07 
       2.926746343646e-05       1.283790453819e-07       1.283900394571e-07       1.283900494275e-07       1.283900493612e-07       1.283783103441e-07       1.283896151029e-07 
       3.012208879845e-05       1.359852612478e-07       1.359976052751e-07       1.359976165283e-07       1.359976164541e-07       1.359844360485e-07       1.359971288636e-07 
       3.100166967156e-05       1.440421056319e-07       1.440559494844e-07       1.440559620759e-07       1.440559619929e-07       1.440411799652e-07       1.440554151616e-07 
       3.190693476988e-05       1.525762427988e-07       1.525917760499e-07       1.525917901788e-07       1.525917900858e-07       1.525752041975e-07       1.525911765236e-07 
       3.283863408632e-05       1.616159570173e-07       1.616333805965e-07       1.616333964038e-07       1.616333962998e-07       1.616147919971e-07       1.616327080773e-07 
       3.379753951399e-05       1.711911831609e-07       1.712107299253e-07       1.712107476418e-07       1.712107475253e-07       1.711898761215e-07       1.712099754406e-07 
       3.478444548567e-05       1.813336401265e-07       1.813555691131e-07       1.813555889719e-07       1.813555888415e-07       1.813321737388e-07       1.813547226629e-07 
       3.580016963202e-05       1.920769222592e-07       1.921015237051e-07       1.921015459663e-07       1.921015458203e-07       1.920752770906e-07       1.921005740838e-07 
       3.684555345892e-05       2.034566090012e-07       2.034842108379e-07       2.034842358040e-07       2.034842356406e-07       2.034547631780e-07       2.034831453929e-07 
       3.792146304469e-05       2.155103932196e-07       2.155413597488e-07       2.155413877420e-07       2.155413875589e-07       2.155083223070e-07       2.155401644108e-07 
       3.902878975758e-05       2.282781917984e-07       2.283129336371e-07       2.283129650259e-07       2.283129648209e-07       2.282758683417e-07       2.283115925539e-07 
       4.016845099426e-05       2.418022857560e-07       2.418412639977e-07       2.418412991965e-07       2.418412989668e-07       2.417996789451e-07       2.418397593691e-07 
       4.134139093988e-05       2.561274603501e-07       2.561711910368e-07       2.561712305083e-07       2.561712302510e-07       2.561245356272e-07       2.561695029394e-07 
       4.254858135027e-05       2.713011470067e-07       2.713502109138e-07       2.713502551838e-07       2.713502548955e-07       2.712978655625e-07       2.713483169302e-07 
       4.379102235708e-05       2.873735894424e-07       2.874286353456e-07       2.874286849898e-07       2.874286846669e-07       2.873699078154e-07       2.874265104228e-07 
       4.506974329629e-05       3.043979993877e-07       3.044597560540e-07       3.044598117138e-07       3.044598113520e-07       3.043938688116e-07       3.044573720465e-07 
       4.638580356106e-05       3.224307339789e-07       3.225000217052e-07       3.225000841383e-07       3.225000837328e-07       3.224260995910e-07       3.224973469617e-07 
       4.774029347938e-05       3.415314570306e-07       3.416092200745e-07       3.416092900398e-07       3.416092895854e-07       3.415262568293e-07       3.416062180880e-07 
       4.913433521739e-05       3.617634555231e-07       3.618507009210e-07       3.618507796598e-07       3.618507791505e-07       3.617576203147e-07       3.618473330558e-07 
       5.056908370909e-05       3.831936629728e-07       3.832915484253e-07       3.832916367430e-07       3.832916361721e-07       3.831871160459e-07       3.832877698106e-07 
       5.204572761313e-05       4.058930024830e-07       4.060028268711e-07       4.060029259278e-07       4.060029252880e-07       4.058856570412e-07       4.059985873587e-07 
       5.356549029765e-05       4.299365910555e-07       4.300598117315e-07       4.300599228494e-07       4.300599221322e-07       4.299283496261e-07       4.300550550701e-07 
       5.512963085377e-05       4.554039855933e-07       4.555422382694e-07       4.555423629248e-07       4.555423621208e-07       4.553947388403e-07       4.555369013180e-07 
       5.673944513873e-05       4.823795041276e-07       4.825345795519e-07       4.825347190811e-07       4.825347181798e-07       4.823691315400e-07       4.825285929469e-07 
       5.839626684951e-05       5.109522840131e-07       5.111262760220e-07       5.111264325682e-07       5.111264315577e-07       5.109406461026e-07       5.111195591497e-07 
       6.010146862770e-05       5.412168890780e-07       5.414121040063e-07       5.414122796169e-07       5.414122784840e-07       5.412038316039e-07       5.414045678099e-07 
       6.185646319679e-05       5.732734140180e-07       5.734924420921e-07       5.734926390969e-07       5.734926378266e-07       5.732587638013e-07       5.734839865781e-07 
       6.366270453251e-05       6.072278039593e-07       6.074736022995e-07       6.074738236763e-07       6.074738222520e-07       6.072113641640e-07       6.074641135803e-07 
       6.552168906749e-05       6.431924622934e-07       6.434682409427e-07       6.434684892697e-07       6.434684876726e-07       6.431740173737e-07       6.434575948337e-07 
       6.743495693093e-05       6.812862248459e-07       6.815956423548e-07       6.815959209185e-07       6.815959191277e-07       6.812655302307e-07       6.815836976178e-07 
       6.940409322464e-05       7.216350164967e-07       7.219821751368e-07       7.219824876333e-07       7.219824856250e-07       7.216117977901e-07       7.219687734099e-07 
       7.143072933625e-05       7.643721818529e-07       7.647616917665e-07       7.647620423386e-07       7.647620400865e-07       7.643461310814e-07       7.647466550799e-07 
       7.351654429076e-05       8.096389625514e-07       8.100759814442e-07       8.100763747087e-07       8.100763721832e-07       8.096097345323e-07       8.100591106653e-07 
       7.566326614156e-05       8.575849014250e-07       8.580752259448e-07       8.580756675925e-07       8.580756647602e-07       8.575521071948e-07       8.580562976600e-07 
       7.787267340214e-05       9.083683765443e-07       9.089185117356e-07       9.089190066287e-07       9.089190034522e-07       9.083315843029e-07       9.088972740769e-07 
       8.014659651953e-05       9.621571040854e-07       9.627743447476e-07       9.627748999312e-07       9.627748963687e-07       9.621158246030e-07       9.627505164703e-07 
       8.248691939074e-05       1.019128684021e-06       1.019821217187e-06       1.019821840017e-06       1.019821836022e-06       1.019082370063e-06       1.019794482233e-06 
       8.489558092359e-05       1.079471184212e-06       1.080248195618e-06       1.080248894350e-06       1.080248889869e-06       1.079419221774e-06       1.080218199377e-06 
       8.737457664304e-05       1.143383751583e-06       1.144255547642e-06       1.144256331478e-06       1.144256326452e-06       1.143325451990e-06       1.144221892194e-06 
       8.992596034440e-05       1.211077261329e-06       1.212055405188e-06       1.212056284577e-06       1.212056278939e-06       1.211011851518e-06       1.212017644186e-06 
       9.255184579492e-05       1.282774997087e-06       1.283872465281e-06       1.283873452691e-06       1.283873446367e-06       1.282701607771e-06       1.283830098389e-06 
       9.525440848495e-05       1.358713392550e-06       1.359944744440e-06       1.359945851490e-06       1.359945844397e-06       1.358631055217e-06       1.359897208498e-06 
       9.803588743031e-05       1.439142803512e-06       1.440524354952e-06       1.440525596941e-06       1.440525588985e-06       1.439050425402e-06       1.440471020569e-06 
       1.008985870272e-04       1.524328251608e-06       1.525878337361e-06       1.525879730809e-06       1.525879721885e-06       1.524224608121e-06       1.525818496782e-06 
       1.038448789616e-04       1.614550390425e-06       1.616289563527e-06       1.616291126839e-06       1.616291116828e-06       1.614434108399e-06       1.616222423268e-06 
       1.068772041737e-04       1.710106492353e-06       1.712057692861e-06       1.712059445866e-06       1.712059434637e-06       1.709976037454e-06       1.711982366682e-06 
       1.099980748807e-04       1.811310819202e-06       1.813500030932e-06       1.813501997719e-06       1.813501985122e-06       1.811164457071e-06       1.813415516373e-06 
       1.132100766576e-04       1.918496497335e-06       1.920952776288e-06       1.920954982995e-06       1.920954968864e-06       1.918332288358e-06       1.920857951715e-06 
       1.165158705797e-04       2.032016131262e-06       2.034772029944e-06       2.034774505759e-06       2.034774489907e-06       2.031831900665e-06       2.034665638646e-06 
       1.199181954271e-04       2.152242904678e-06       2.155334967372e-06       2.155337745111e-06       2.155337727329e-06       2.152036212218e-06       2.155215598591e-06 
       1.234198699538e-04       2.279571871180e-06       2.283041109153e-06       2.283044225696e-06       2.283044205747e-06       2.279339978973e-06       2.282907179740e-06 
       1.270237952227e-04       2.414421225165e-06       2.418313645420e-06       2.418317142100e-06       2.418317119721e-06       2.414161062125e-06       2.418163379349e-06 
       1.307329570095e-04       2.557233623525e-06       2.561600834371e-06       2.561604757528e-06       2.561604732422e-06       2.556941744738e-06       2.561432239369e-06 
       1.345504282758e-04       2.708477550652e-06       2.713377475603e-06       2.713381877411e-06       2.713381849247e-06       2.708150090795e-06       2.713188315755e-06 
       1.384793717157e-04       2.868648828707e-06       2.874146488157e-06       2.874151427241e-06       2.874151395645e-06       2.868281450651e-06       2.873934253675e-06 
       1.425230423754e-04       3.038272359566e-06       3.044440613329e-06       3.044446155085e-06       3.044446119638e-06       3.037860201204e-06       3.044202491553e-06 
       1.466847903501e-04       3.217903569373e-06       3.224824129837e-06       3.224830347387e-06       3.224830307620e-06       3.217441178245e-06       3.224556966192e-06 
       1.509680635597e-04       3.408129999456e-06       3.415894685994e-06       3.415901661801e-06       3.415901617187e-06       3.407611255302e-06       3.415594936062e-06 
       1.553764106052e-04       3.609573617946e-06       3.618285383317e-06       3.618293209140e-06       3.618293159089e-06       3.608991659129e-06       3.617949072353e-06 
       1.599134837084e-04       3.822892524803e-06       3.832666809534e-06       3.832675591826e-06       3.832675535673e-06       3.822239646150e-06       3.832289483359e-06 
       1.645830417382e-04       4.048782828310e-06       4.059749240762e-06       4.059759093463e-06       4.059759030465e-06       4.048050400980e-06       4.059325894406e-06 
       1.693889533242e-04       4.287981198917e-06       4.300285043108e-06       4.300296100492e-06       4.300296029814e-06       4.287159527850e-06       4.299810070415e-06 
       1.743352000622e-04       4.541266744082e-06       4.555071113891e-06       4.555083519927e-06       4.555083440633e-06       4.540344973335e-06       4.554538217321e-06 
       1.794258798126e-04       4.809464084730e-06       4.824951638678e-06       4.824965551906e-06       4.824965462944e-06       4.808430054862e-06       4.824353763051e-06 
       1.846652100954e-04       5.093443926512e-06       5.110820435059e-06       5.110836046963e-06       5.110835947154e-06       5.092283938278e-06       5.110149642839e-06 
       1.900575315847e-04       5.394129706804e-06       5.413624837422e-06       5.413642355100e-06       5.413642243122e-06       5.392828450902e-06       5.412872263622e-06 
       1.956073117042e-04       5.712494798703e-06       5.734367566070e-06       5.734387222059e-06       5.734387096426e-06       5.711035066319e-06       5.733523212999e-06 
       2.013191483291e-04       6.049571544359e-06       6.074111379966e-06       6.074133435418e-06       6.074133294466e-06       6.047934067953e-06       6.073164076325e-06 
       2.071977735946e-04       6.406449919512e-06       6.433981646978e-06       6.434006382830e-06       6.434006224689e-06       6.404613123875e-06       6.432918846421e-06 
       2.132480578171e-04       6.784281510885e-06       6.815170130235e-06       6.815197890474e-06       6.815197713048e-06       6.782221099967e-06       6.813977756531e-06 
       2.194750135285e-04       7.184284850235e-06       7.218939500642e-06       7.218970647997e-06       7.218970448934e-06       7.181973657533e-06       7.217601758023e-06 
       2.258837996296e-04       7.607747336690e-06       7.646627034312e-06       7.646661969525e-06       7.646661746184e-06       7.605154913618e-06       7.645126196867e-06 
       2.324797256634e-04       8.056029647783e-06       8.099649119090e-06       8.099688333109e-06       8.099688082530e-06       8.053121739963e-06       8.097965341220e-06 
