# Transfer functions T_i(k) for adiabatic (AD) mode (normalized to initial curvature=1) at redshift z=99
# for k=1.00899e-05 to 288.436 h/Mpc,
# number of wavenumbers equal to 1038
# t_i   stands for theta_i(k,z) with above normalization 
# t_tot stands for (sum_i [rho_i+p_i] theta_i)/(sum_i [rho_i+p_i]))(k,z)
#
#    1:k (h/Mpc)              2:t_g                    3:t_b                    4:t_cdm                  5:t_dmeff                6:t_ur                   7:t_tot              
       1.008985870272e-05       1.525905923011e-08       1.525921710561e-08       1.525921726333e-08       1.525921726244e-08       1.525904874201e-08       1.525921102467e-08 
       1.024593865065e-05       1.573478998502e-08       1.573495776657e-08       1.573495793368e-08       1.573495793274e-08       1.573477883643e-08       1.573495130362e-08 
       1.040443299810e-05       1.622535240377e-08       1.622553071583e-08       1.622553089291e-08       1.622553089190e-08       1.622534055298e-08       1.622552384679e-08 
       1.056537909342e-05       1.673120887667e-08       1.673139838315e-08       1.673139857081e-08       1.673139856974e-08       1.673119627934e-08       1.673139108240e-08 
       1.072881486267e-05       1.725283620880e-08       1.725303761557e-08       1.725303781446e-08       1.725303781332e-08       1.725282281776e-08       1.725302985587e-08 
       1.089477881860e-05       1.779072606932e-08       1.779094012685e-08       1.779094033766e-08       1.779094033645e-08       1.779071183445e-08       1.779093187925e-08 
       1.106331006970e-05       1.834538545484e-08       1.834561296103e-08       1.834561318449e-08       1.834561318320e-08       1.834537032283e-08       1.834560419473e-08 
       1.123444832946e-05       1.891733716719e-08       1.891757897035e-08       1.891757920724e-08       1.891757920587e-08       1.891732108135e-08       1.891756965262e-08 
       1.140823392565e-05       1.950712030603e-08       1.950737730811e-08       1.950737755926e-08       1.950737755780e-08       1.950710320611e-08       1.950736740414e-08 
       1.158470780992e-05       2.011529077694e-08       2.011556393689e-08       2.011556420318e-08       2.011556420164e-08       2.011527259886e-08       2.011555340969e-08 
       1.176391156738e-05       2.074242181524e-08       2.074271215263e-08       2.074271243499e-08       2.074271243335e-08       2.074240249088e-08       2.074270096284e-08 
       1.194588742640e-05       2.138910452616e-08       2.138941312500e-08       2.138941342444e-08       2.138941342269e-08       2.138908398308e-08       2.138940123080e-08 
       1.213067826860e-05       2.205594844186e-08       2.205627645469e-08       2.205627677225e-08       2.205627677040e-08       2.205592660302e-08       2.205626381160e-08 
       1.231832763895e-05       2.274358209576e-08       2.274393074801e-08       2.274393108481e-08       2.274393108284e-08       2.274355887928e-08       2.274391730873e-08 
       1.250887975598e-05       2.345265361464e-08       2.345302420936e-08       2.345302456660e-08       2.345302456450e-08       2.345262893345e-08       2.345300992361e-08 
       1.270237952227e-05       2.418383132988e-08       2.418422525268e-08       2.418422563163e-08       2.418422562939e-08       2.418380509139e-08       2.418421006699e-08 
       1.289887253498e-05       2.493780440920e-08       2.493822313136e-08       2.493822353336e-08       2.493822353098e-08       2.493777651497e-08       2.493820698894e-08 
       1.309840509662e-05       2.571528349710e-08       2.571572858567e-08       2.571572901215e-08       2.571572900962e-08       2.571525384247e-08       2.571571142605e-08 
       1.330102422595e-05       2.651700139721e-08       2.651747451721e-08       2.651747496968e-08       2.651747496700e-08       2.651696987088e-08       2.651745627613e-08 
       1.350677766905e-05       2.734371375474e-08       2.734421667648e-08       2.734421715656e-08       2.734421715371e-08       2.734368023839e-08       2.734419728562e-08 
       1.371571391061e-05       2.819619977040e-08       2.819673437613e-08       2.819673488555e-08       2.819673488252e-08       2.819616413819e-08       2.819671376285e-08 
       1.392788218531e-05       2.907526293452e-08       2.907583122557e-08       2.907583176614e-08       2.907583176292e-08       2.907522505268e-08       2.907580931262e-08 
       1.414333248944e-05       2.998173178418e-08       2.998233588843e-08       2.998233646210e-08       2.998233645866e-08       2.998169151046e-08       2.998231259369e-08 
       1.436211559270e-05       3.091646068378e-08       3.091710286370e-08       3.091710347252e-08       3.091710346887e-08       3.091641786693e-08       3.091707809985e-08 
       1.458428305012e-05       3.188033063004e-08       3.188101329121e-08       3.188101393738e-08       3.188101393350e-08       3.188028510925e-08       3.188098696541e-08 
       1.480988721427e-05       3.287425008204e-08       3.287497578220e-08       3.287497646804e-08       3.287497646391e-08       3.287420168631e-08       3.287494779572e-08 
       1.503898124752e-05       3.389915581711e-08       3.389992727578e-08       3.389992800376e-08       3.389992799937e-08       3.389910436462e-08       3.389989752366e-08 
       1.527161913464e-05       3.495601381338e-08       3.495683392212e-08       3.495683469487e-08       3.495683469021e-08       3.495595911081e-08       3.495680229277e-08 
       1.550785569548e-05       3.604582015990e-08       3.604669199319e-08       3.604669281351e-08       3.604669280855e-08       3.604576200168e-08       3.604665836793e-08 
       1.574774659788e-05       3.716960200301e-08       3.717052882485e-08       3.717052969569e-08       3.717052969042e-08       3.716954017060e-08       3.717049307769e-08 
       1.599134837084e-05       3.832841848966e-08       3.832940377318e-08       3.832940469779e-08       3.832940469218e-08       3.832835275023e-08       3.832936577014e-08 
       1.623871841779e-05       3.952336180858e-08       3.952440923698e-08       3.952441021850e-08       3.952441021254e-08       3.952329191620e-08       3.952436883573e-08 
       1.648991503011e-05       4.075555811818e-08       4.075667164731e-08       4.075667268935e-08       4.075667268301e-08       4.075548381017e-08       4.075662869521e-08 
       1.674499740094e-05       4.202616882741e-08       4.202735259748e-08       4.202735370379e-08       4.202735369704e-08       4.202608982451e-08       4.202730693468e-08 
       1.700402563902e-05       4.333639134248e-08       4.333764983605e-08       4.333765101064e-08       4.333765100348e-08       4.333630734764e-08       4.333760128954e-08 
       1.726706078297e-05       4.468746057594e-08       4.468879857886e-08       4.468879978724e-08       4.468879977962e-08       4.468737138749e-08       4.468874693456e-08 
       1.753416481556e-05       4.608064991906e-08       4.608207226025e-08       4.608207358424e-08       4.608207357613e-08       4.608055497395e-08       4.608201739023e-08 
       1.780540067841e-05       4.751727227000e-08       4.751878439654e-08       4.751878580330e-08       4.751878579468e-08       4.751717132160e-08       4.751872606205e-08 
       1.808083228677e-05       4.899868166023e-08       4.900028923195e-08       4.900029072462e-08       4.900029071545e-08       4.899857433567e-08       4.900022721300e-08 
       1.836052454460e-05       5.052627418781e-08       5.052798325396e-08       5.052798484061e-08       5.052798483086e-08       5.052616007471e-08       5.052791731902e-08 
       1.864454335985e-05       5.210148954992e-08       5.210330652864e-08       5.210330821277e-08       5.210330820241e-08       5.210136822598e-08       5.210323642823e-08 
       1.893295566000e-05       5.372581226900e-08       5.372774398782e-08       5.372774577648e-08       5.372774576547e-08       5.372568327542e-08       5.372766945906e-08 
       1.922582940784e-05       5.540077314033e-08       5.540282686906e-08       5.540282876791e-08       5.540282875619e-08       5.540063599555e-08       5.540274763066e-08 
       1.952323361747e-05       5.712795079694e-08       5.713013418626e-08       5.713013620029e-08       5.713013618784e-08       5.712780499075e-08       5.713004994138e-08 
       1.982523837057e-05       5.890897284220e-08       5.891129410537e-08       5.891129624671e-08       5.891129623347e-08       5.890881781244e-08       5.891120454055e-08 
       2.013191483291e-05       6.074551772750e-08       6.074798559455e-08       6.074798787451e-08       6.074798786043e-08       6.074535287406e-08       6.074789037529e-08 
       2.044333527112e-05       6.263931631253e-08       6.264194003188e-08       6.264194244911e-08       6.264194243413e-08       6.263914105411e-08       6.264183879396e-08 
       2.075957306974e-05       6.459215357397e-08       6.459494272918e-08       6.459494529525e-08       6.459494527933e-08       6.459196724479e-08       6.459483510462e-08 
       2.108070274847e-05       6.660586926843e-08       6.660883451950e-08       6.660883724386e-08       6.660883722693e-08       6.660567116719e-08       6.660872009684e-08 
       2.140679997977e-05       6.868236111813e-08       6.868551376307e-08       6.868551665640e-08       6.868551663840e-08       6.868215049713e-08       6.868539210671e-08 
       2.173794160667e-05       7.082358921068e-08       7.082693874921e-08       7.082694180781e-08       7.082694178866e-08       7.082336535368e-08       7.082680948127e-08 
       2.207420566089e-05       7.303155756375e-08       7.303512487214e-08       7.303512816857e-08       7.303512814822e-08       7.303131924078e-08       7.303498723263e-08 
       2.241567138123e-05       7.530836518038e-08       7.531215780312e-08       7.531216130346e-08       7.531216128182e-08       7.530811179709e-08       7.531201146659e-08 
       2.276241923221e-05       7.765615000235e-08       7.766018221424e-08       7.766018593188e-08       7.766018590887e-08       7.765588060187e-08       7.766002663004e-08 
       2.311453092307e-05       8.007712421210e-08       8.008141135309e-08       8.008141530250e-08       8.008141527803e-08       8.007683777492e-08       8.008124592967e-08 
       2.347208942701e-05       8.257357843962e-08       8.257812964718e-08       8.257813378874e-08       8.257813376272e-08       8.257327425149e-08       8.257795399166e-08 
       2.383517900075e-05       8.514784715517e-08       8.515268646327e-08       8.515269087044e-08       8.515269084277e-08       8.514752369200e-08       8.515249969087e-08 
       2.420388520435e-05       8.780236498180e-08       8.780751067237e-08       8.780751535810e-08       8.780751532868e-08       8.780202103980e-08       8.780731207481e-08 
       2.457829492143e-05       9.053963305742e-08       9.054510472232e-08       9.054510970350e-08       9.054510967222e-08       9.053926734042e-08       9.054489354290e-08 
       2.495849637959e-05       9.336222300177e-08       9.336804740037e-08       9.336805274443e-08       9.336805271117e-08       9.336183379342e-08       9.336782264211e-08 
       2.534457917122e-05       9.627281128620e-08       9.627900349646e-08       9.627900917198e-08       9.627900913661e-08       9.627239747733e-08       9.627876453949e-08 
       2.573663427464e-05       9.927413090955e-08       9.928071476268e-08       9.928072079365e-08       9.928072075604e-08       9.927369092175e-08       9.928046068931e-08 
       2.613475407549e-05       1.023690111468e-07       1.023760109827e-07       1.023760173901e-07       1.023760173501e-07       1.023685433286e-07       1.023757408522e-07 
       2.653903238852e-05       1.055603666483e-07       1.055678095114e-07       1.055678163225e-07       1.055678162800e-07       1.055598692208e-07       1.055675222825e-07 
       2.694956447972e-05       1.088512067526e-07       1.088591195495e-07       1.088591267843e-07       1.088591267391e-07       1.088506778733e-07       1.088588141796e-07 
       2.736644708873e-05       1.122446289027e-07       1.122530428147e-07       1.122530505065e-07       1.122530504584e-07       1.122440665377e-07       1.122527181049e-07 
       2.778977845167e-05       1.157438375579e-07       1.157527801313e-07       1.157527882915e-07       1.157527882403e-07       1.157432397091e-07       1.157524350050e-07 
       2.821965832426e-05       1.193521184856e-07       1.193616278227e-07       1.193616365300e-07       1.193616364757e-07       1.193514826767e-07       1.193612608460e-07 
       2.865618800534e-05       1.230728875898e-07       1.230829915028e-07       1.230830006792e-07       1.230830006214e-07       1.230722120265e-07       1.230826015201e-07 
       2.909947036075e-05       1.269096358795e-07       1.269203756160e-07       1.269203853436e-07       1.269203852822e-07       1.269089176828e-07       1.269199610693e-07 
       2.954960984757e-05       1.308659770479e-07       1.308773970831e-07       1.308774074254e-07       1.308774073601e-07       1.308652133725e-07       1.308769562763e-07 
       3.000671253870e-05       1.349456261826e-07       1.349577830959e-07       1.349577941815e-07       1.349577941121e-07       1.349448135321e-07       1.349573139120e-07 
       3.047088614791e-05       1.391524635629e-07       1.391653882581e-07       1.391654000352e-07       1.391653999613e-07       1.391515995165e-07       1.391648894343e-07 
       3.094224005516e-05       1.434904382116e-07       1.435041755159e-07       1.435041880083e-07       1.435041879297e-07       1.434895196423e-07       1.435036453063e-07 
       3.142088533243e-05       1.479636191134e-07       1.479782306221e-07       1.479782439236e-07       1.479782438401e-07       1.479626422695e-07       1.479776666857e-07 
       3.190693476988e-05       1.525762433088e-07       1.525917761696e-07       1.525917902967e-07       1.525917902079e-07       1.525752047200e-07       1.525911766603e-07 
       3.240050290240e-05       1.573326459164e-07       1.573491586059e-07       1.573491735914e-07       1.573491734970e-07       1.573315418002e-07       1.573485212524e-07 
       3.290170603662e-05       1.622373043731e-07       1.622548616143e-07       1.622548775403e-07       1.622548774399e-07       1.622361303981e-07       1.622541839372e-07 
       3.341066227834e-05       1.672948425670e-07       1.673135102042e-07       1.673135271286e-07       1.673135270218e-07       1.672935943176e-07       1.673127896603e-07 
       3.392749156031e-05       1.725100243310e-07       1.725298726647e-07       1.725298906508e-07       1.725298905372e-07       1.725086971043e-07       1.725291065402e-07 
       3.445231567053e-05       1.778877622172e-07       1.779088660135e-07       1.779088851285e-07       1.779088850078e-07       1.778863510115e-07       1.779080514220e-07 
       3.498525828094e-05       1.834331219309e-07       1.834555606038e-07       1.834555809191e-07       1.834555807907e-07       1.834316214291e-07       1.834546944794e-07 
       3.552644497655e-05       1.891513270589e-07       1.891751848767e-07       1.891752064674e-07       1.891752063308e-07       1.891497316141e-07       1.891742639655e-07 
       3.607600328507e-05       1.950477632635e-07       1.950731301374e-07       1.950731530842e-07       1.950731529390e-07       1.950460668616e-07       1.950721509684e-07 
       3.663406270690e-05       2.011279820207e-07       2.011549553414e-07       2.011549797387e-07       2.011549795843e-07       2.011261782168e-07       2.011539141613e-07 
       3.720075474571e-05       2.073977133480e-07       2.074263940413e-07       2.074264199787e-07       2.074264198146e-07       2.073957953509e-07       2.074252869524e-07 
       3.777621293938e-05       2.138628624121e-07       2.138933577848e-07       2.138933853558e-07       2.138933851813e-07       2.138608230189e-07       2.138921806417e-07 
       3.836057289149e-05       2.205295175465e-07       2.205619422507e-07       2.205619715549e-07       2.205619713693e-07       2.205273490946e-07       2.205606906245e-07 
       3.895397230327e-05       2.274039575018e-07       2.274384333588e-07       2.274384645065e-07       2.274384643091e-07       2.274016518180e-07       2.274371025469e-07 
       3.955655100607e-05       2.344926555631e-07       2.345293127592e-07       2.345293458673e-07       2.345293456574e-07       2.344902039558e-07       2.345278977358e-07 
       4.016845099426e-05       2.418022865643e-07       2.418412641874e-07       2.418412993834e-07       2.418412991602e-07       2.417996797731e-07       2.418397595858e-07 
       4.078981645874e-05       2.493397363817e-07       2.493811804743e-07       2.493812178875e-07       2.493812176502e-07       2.493369645981e-07       2.493795806542e-07 
       4.142079382089e-05       2.571121018486e-07       2.571561685694e-07       2.571562083405e-07       2.571562080882e-07       2.571091546237e-07       2.571544675026e-07 
       4.206153176708e-05       2.651267007686e-07       2.651735569777e-07       2.651735992600e-07       2.651735989917e-07       2.651235669734e-07       2.651717482255e-07 
       4.271218128370e-05       2.733910823872e-07       2.734409035218e-07       2.734409484677e-07       2.734409481824e-07       2.733877502435e-07       2.734389803067e-07 
       4.337289569278e-05       2.819130268880e-07       2.819660006987e-07       2.819660484773e-07       2.819660481739e-07       2.819094838391e-07       2.819639557727e-07 
       4.404383068805e-05       2.907005576828e-07       2.907568841871e-07       2.907569349786e-07       2.907569346561e-07       2.906967903663e-07       2.907547098292e-07 
       4.472514437169e-05       2.997619511078e-07       2.998218409464e-07       2.998218949202e-07       2.998218945772e-07       2.997579454115e-07       2.998195290084e-07 
       4.541699729155e-05       3.091057342903e-07       3.091694145927e-07       3.091694719856e-07       3.091694716209e-07       3.091014749899e-07       3.091669563319e-07 
       4.611955247898e-05       3.187407067804e-07       3.188084164400e-07       3.188084777289e-07       3.188084773411e-07       3.187361771108e-07       3.188058028323e-07 
       4.683297548730e-05       3.286759369942e-07       3.287479331079e-07       3.287479979730e-07       3.287479975607e-07       3.286711213887e-07       3.287451538108e-07 
       4.755743443073e-05       3.389207477373e-07       3.389973253192e-07       3.389973944727e-07       3.389973940342e-07       3.389156260035e-07       3.389943692960e-07 
       4.829310002407e-05       3.494848444781e-07       3.495662686529e-07       3.495663421542e-07       3.495663416880e-07       3.494793985982e-07       3.495631255199e-07 
       4.904014562292e-05       3.603781404359e-07       3.604647183324e-07       3.604647964671e-07       3.604647959714e-07       3.603723498533e-07       3.604613762404e-07 
       4.979874726447e-05       3.716108897592e-07       3.717029473777e-07       3.717030304434e-07       3.717030299162e-07       3.716047326323e-07       3.716993937444e-07 
       5.056908370909e-05       3.831936642537e-07       3.832915487260e-07       3.832916370392e-07       3.832916364787e-07       3.831871173581e-07       3.832877701540e-07 
       5.135133648233e-05       3.951373652023e-07       3.952414457131e-07       3.952415396019e-07       3.952415390059e-07       3.951304038745e-07       3.952374279474e-07 
       5.214568991780e-05       4.074532333221e-07       4.075639022639e-07       4.075640020769e-07       4.075640014431e-07       4.074458313401e-07       4.075596301531e-07 
       5.295233120056e-05       4.201528576674e-07       4.202705331320e-07       4.202706392593e-07       4.202706385854e-07       4.201449870705e-07       4.202659905473e-07 
       5.377145041121e-05       4.332481906215e-07       4.333733158643e-07       4.333734286928e-07       4.333734279763e-07       4.332398217775e-07       4.333684856847e-07 
